Date,open,high,low,close,volume,adj_close,diff
2011-01-03,47.78,48.3,47.72,48.12,118800,44.77,0.3399999999999963
2011-01-04,48.28,48.3,47.31,47.82,131700,44.49,-0.46000000000000085
2011-01-05,47.79,48.01,47.48,47.9,122400,44.56,0.10999999999999943
2011-01-06,48.0,48.0,47.26,47.47,88400,44.16,-0.5300000000000011
2011-01-07,47.7,47.7,47.08,47.38,136100,44.08,-0.3200000000000003
2011-01-10,47.22,47.57,46.75,47.44,184200,44.14,0.21999999999999886
2011-01-11,47.66,47.93,47.4,47.82,166200,44.49,0.1600000000000037
2011-01-12,48.25,48.26,47.94,48.2,165800,44.84,-0.04999999999999716
2011-01-13,48.06,48.24,47.88,48.18,64400,44.83,0.11999999999999744
2011-01-14,48.18,48.52,47.98,48.47,85600,45.1,0.28999999999999915
2011-01-18,48.35,49.14,47.76,49.07,376600,45.65,0.7199999999999989
2011-01-19,48.97,49.13,48.38,48.67,213500,45.28,-0.29999999999999716
2011-01-20,48.47,48.57,47.7,48.24,107500,44.88,-0.22999999999999687
2011-01-21,48.48,48.49,47.76,48.01,73800,44.67,-0.46999999999999886
2011-01-24,48.13,48.73,47.94,48.64,115800,45.25,0.509999999999998
2011-01-25,48.29,48.57,47.98,48.55,171300,45.17,0.259999999999998
2011-01-26,48.62,48.94,48.47,48.84,122200,45.44,0.22000000000000597
2011-01-27,48.76,48.86,48.48,48.69,68700,45.3,-0.07000000000000028
2011-01-28,48.68,48.79,47.7,47.81,187500,44.48,-0.8699999999999974
2011-01-31,47.79,48.26,47.53,48.06,153100,44.88,0.2700000000000031
2011-02-01,48.23,48.88,48.21,48.69,173800,45.47,0.46000000000000085
2011-02-02,48.53,48.78,48.47,48.6,97500,45.39,0.07000000000000028
2011-02-03,48.48,48.64,48.05,48.4,104700,45.2,-0.0799999999999983
2011-02-04,48.42,48.69,48.31,48.6,125500,45.39,0.17999999999999972
2011-02-07,48.81,49.48,48.81,49.44,209500,46.17,0.6299999999999955
2011-02-08,49.48,49.86,49.4,49.82,142300,46.53,0.3400000000000034
2011-02-09,49.64,49.9,49.25,49.49,105500,46.22,-0.14999999999999858
2011-02-10,49.39,49.99,49.12,49.63,124100,46.35,0.240000000000002
2011-02-11,49.38,50.06,48.53,49.48,142600,46.21,0.09999999999999432
2011-02-14,49.73,49.9,48.94,49.24,378900,45.98,-0.4899999999999949
2011-02-15,48.96,49.4,48.9,49.2,258500,45.95,0.240000000000002
2011-02-16,49.28,49.68,48.96,49.19,136800,45.94,-0.09000000000000341
2011-02-17,49.08,49.55,48.95,49.51,116900,46.24,0.4299999999999997
2011-02-18,49.53,49.62,49.13,49.49,160400,46.22,-0.03999999999999915
2011-02-22,48.84,49.33,48.34,48.49,197400,45.28,-0.3500000000000014
2011-02-23,48.28,48.55,47.09,47.8,214200,44.64,-0.480000000000004
2011-02-24,47.91,48.03,46.95,47.45,221600,44.31,-0.45999999999999375
2011-02-25,47.66,48.05,47.39,48.04,141900,44.86,0.38000000000000256
2011-02-28,48.21,48.56,48.02,48.17,225000,44.99,-0.03999999999999915
2011-03-01,48.21,48.39,47.23,47.46,208900,44.32,-0.75
2011-03-02,47.46,47.75,47.25,47.43,114500,44.29,-0.030000000000001137
2011-03-03,47.77,48.78,47.77,48.62,264500,45.41,0.8499999999999943
2011-03-04,48.53,48.87,47.48,47.94,166500,44.77,-0.5900000000000034
2011-03-07,48.09,48.32,47.35,47.77,132200,44.61,-0.3200000000000003
2011-03-08,47.81,49.76,47.81,49.73,395500,46.44,1.9199999999999946
2011-03-09,49.56,49.66,48.94,49.29,152500,46.03,-0.2700000000000031
2011-03-10,48.73,48.9,47.94,48.03,148400,44.85,-0.6999999999999957
2011-03-11,47.76,48.36,47.63,48.14,134200,44.96,0.38000000000000256
2011-03-14,47.74,48.56,47.74,48.4,168800,45.2,0.6599999999999966
2011-03-15,47.22,48.07,46.5,47.68,206300,44.53,0.46000000000000085
2011-03-16,47.58,47.99,47.06,47.32,201600,44.19,-0.259999999999998
2011-03-17,47.9,47.97,47.33,47.41,161400,44.28,-0.490000000000002
2011-03-18,47.86,48.32,47.71,48.0,219700,44.83,0.14000000000000057
2011-03-21,48.46,49.09,48.31,48.99,143700,45.75,0.5300000000000011
2011-03-22,48.97,49.17,48.61,48.91,61300,45.68,-0.060000000000002274
2011-03-23,48.89,49.2,48.49,48.98,119700,45.74,0.0899999999999963
2011-03-24,49.15,49.27,48.81,49.13,98600,45.88,-0.01999999999999602
2011-03-25,49.29,49.75,48.94,48.97,133400,45.73,-0.3200000000000003
2011-03-28,49.15,49.34,48.83,48.9,107800,45.67,-0.25
2011-03-29,48.8,49.04,48.52,48.82,150200,45.59,0.020000000000003126
2011-03-30,48.95,49.8,48.78,49.62,100400,46.34,0.6699999999999946
2011-03-31,49.58,50.19,49.58,50.13,229700,46.82,0.5500000000000043
2011-04-01,50.41,51.11,50.01,50.78,130700,47.42,0.37000000000000455
2011-04-04,50.94,51.21,50.7,51.14,114300,47.76,0.20000000000000284
2011-04-05,51.0,51.78,50.85,51.56,135300,48.15,0.5600000000000023
2011-04-06,51.79,51.87,51.12,51.54,98200,48.13,-0.25
2011-04-07,51.46,51.59,50.89,50.94,99200,47.57,-0.5200000000000031
2011-04-08,51.16,51.29,50.13,50.36,110100,47.03,-0.7999999999999972
2011-04-11,50.54,50.54,49.79,50.05,62200,46.74,-0.490000000000002
2011-04-12,49.69,49.92,49.21,49.38,96300,46.12,-0.30999999999999517
2011-04-13,49.83,49.94,49.18,49.62,88800,46.34,-0.21000000000000085
2011-04-14,49.27,49.86,49.15,49.67,65000,46.39,0.3999999999999986
2011-04-15,49.69,50.29,49.51,50.23,76300,46.91,0.5399999999999991
2011-04-18,49.74,49.81,48.85,49.59,179700,46.31,-0.14999999999999858
2011-04-19,49.67,50.17,49.3,50.17,114700,46.85,0.5
2011-04-20,51.0,51.23,50.67,51.0,139700,47.63,0.0
2011-04-21,51.0,51.51,50.78,51.37,117700,47.97,0.36999999999999744
2011-04-25,51.25,51.3,50.77,51.12,154400,47.91,-0.13000000000000256
2011-04-26,51.37,52.09,51.27,51.84,207100,48.58,0.47000000000000597
2011-04-27,51.85,52.16,51.36,52.13,178100,48.85,0.28000000000000114
2011-04-28,52.08,52.57,51.97,52.36,116900,49.07,0.28000000000000114
2011-04-29,52.4,52.75,52.22,52.45,91000,49.15,0.05000000000000426
2011-05-02,52.54,53.02,52.41,52.83,192000,49.51,0.28999999999999915
2011-05-03,52.63,52.77,52.02,52.38,126000,49.09,-0.25
2011-05-04,52.34,52.64,51.55,51.89,131000,48.63,-0.45000000000000284
2011-05-05,51.5,52.04,51.08,51.35,228400,48.12,-0.14999999999999858
2011-05-06,51.73,51.96,51.03,51.26,169300,48.04,-0.46999999999999886
2011-05-09,51.34,52.45,51.25,52.25,127000,48.97,0.9099999999999966
2011-05-10,52.27,53.08,52.16,52.4,218800,49.11,0.12999999999999545
2011-05-11,52.19,52.55,51.33,51.61,173300,48.37,-0.5799999999999983
2011-05-12,51.36,52.53,51.2,52.47,205000,49.17,1.1099999999999994
2011-05-13,52.58,53.0,52.21,52.31,205700,49.02,-0.269999999999996
2011-05-16,52.05,53.29,51.86,52.92,349000,49.6,0.8700000000000045
2011-05-17,52.6,52.61,51.67,52.0,231600,48.73,-0.6000000000000014
2011-05-18,51.82,53.57,51.72,53.23,295200,49.89,1.4099999999999966
2011-05-19,53.18,53.8,52.7,52.99,211000,49.66,-0.18999999999999773
2011-05-20,52.87,53.3,52.2,52.52,164300,49.22,-0.3499999999999943
2011-05-23,51.7,51.8,51.17,51.56,198400,48.32,-0.14000000000000057
2011-05-24,51.58,51.83,51.3,51.47,115500,48.24,-0.10999999999999943
2011-05-25,51.25,52.17,51.25,52.06,150600,48.79,0.8100000000000023
2011-05-26,51.81,52.05,51.59,51.98,184300,48.71,0.1699999999999946
2011-05-27,52.13,52.44,52.08,52.23,80500,48.95,0.09999999999999432
2011-05-31,52.62,53.45,52.3,53.4,456100,50.05,0.7800000000000011
2011-06-01,53.32,53.48,52.06,52.12,210000,48.85,-1.2000000000000028
2011-06-02,51.96,52.36,51.68,51.97,197300,48.7,0.00999999999999801
2011-06-03,51.11,51.71,51.11,51.15,200300,47.94,0.03999999999999915
2011-06-06,51.16,51.37,50.53,50.55,283400,47.37,-0.6099999999999994
2011-06-07,50.91,51.2,50.57,50.87,133200,47.67,-0.03999999999999915
2011-06-08,50.62,50.99,50.56,50.6,116800,47.42,-0.01999999999999602
2011-06-09,50.77,51.32,50.51,51.09,136300,47.88,0.3200000000000003
2011-06-10,50.77,51.1,50.27,50.4,158300,47.23,-0.37000000000000455
2011-06-13,51.78,51.78,50.91,51.45,377300,48.22,-0.3299999999999983
2011-06-14,51.86,51.94,51.54,51.6,183700,48.36,-0.259999999999998
2011-06-15,51.01,51.6,50.53,50.59,183900,47.41,-0.4199999999999946
2011-06-16,50.49,50.85,50.06,50.67,209300,47.49,0.17999999999999972
2011-06-17,51.19,51.3,50.28,50.48,265000,47.31,-0.7100000000000009
2011-06-20,50.45,50.83,50.25,50.65,145100,47.47,0.19999999999999574
2011-06-21,50.99,51.42,50.72,51.3,122800,48.08,0.30999999999999517
2011-06-22,51.16,51.42,50.96,51.09,97200,47.88,-0.06999999999999318
2011-06-23,50.3,50.89,49.93,50.82,135300,47.63,0.5200000000000031
2011-06-24,50.84,50.98,50.26,50.61,224500,47.43,-0.23000000000000398
2011-06-27,50.62,51.42,50.23,51.04,267400,47.83,0.4200000000000017
2011-06-28,50.98,51.8,50.98,51.62,207400,48.38,0.6400000000000006
2011-06-29,51.87,52.25,51.49,52.04,185600,48.77,0.1700000000000017
2011-06-30,52.24,52.45,51.93,52.34,165600,49.05,0.10000000000000142
2011-07-01,52.58,53.34,52.19,53.24,162400,49.9,0.6600000000000037
2011-07-05,53.26,53.34,52.83,53.16,120900,49.82,-0.10000000000000142
2011-07-06,53.14,54.25,52.88,54.17,340200,50.77,1.0300000000000011
2011-07-07,54.62,54.66,54.22,54.34,152100,50.93,-0.27999999999999403
2011-07-08,53.62,54.29,53.6,54.21,109600,50.8,0.5900000000000034
2011-07-11,53.5,53.9,53.27,53.47,82300,50.11,-0.030000000000001137
2011-07-12,53.25,53.74,53.22,53.39,128000,50.04,0.14000000000000057
2011-07-13,53.57,54.1,53.21,53.25,184100,49.9,-0.3200000000000003
2011-07-14,53.51,53.57,52.32,52.52,152800,49.22,-0.9899999999999949
2011-07-15,52.88,52.88,52.18,52.66,129900,49.35,-0.22000000000000597
2011-07-18,52.4,52.4,51.49,51.63,225100,48.39,-0.769999999999996
2011-07-19,51.9,53.79,51.85,53.54,344100,50.18,1.6400000000000006
2011-07-20,51.04,53.45,47.61,53.07,470400,49.74,2.030000000000001
2011-07-21,53.2,53.68,52.8,53.16,299100,49.82,-0.04000000000000625
2011-07-22,53.03,53.24,52.74,53.04,155000,49.71,0.00999999999999801
2011-07-25,52.56,53.24,52.45,52.73,195200,49.42,0.1699999999999946
2011-07-26,52.8,53.16,52.32,52.56,264500,49.26,-0.23999999999999488
2011-07-27,52.26,52.39,51.33,51.47,290200,48.24,-0.7899999999999991
2011-07-28,51.51,51.75,51.14,51.24,246800,48.02,-0.269999999999996
2011-07-29,50.52,51.17,49.79,51.05,219600,48.05,0.529999999999994
2011-08-01,51.53,51.66,50.58,51.0,199200,48.0,-0.5300000000000011
2011-08-02,50.56,51.26,49.86,49.92,225700,46.99,-0.6400000000000006
2011-08-03,49.88,49.89,48.4,49.6,329100,46.68,-0.28000000000000114
2011-08-04,48.95,49.12,47.42,47.44,279700,44.65,-1.5100000000000051
2011-08-05,48.04,48.69,46.83,47.74,431600,44.93,-0.29999999999999716
2011-08-08,46.32,46.96,45.21,45.26,607100,42.6,-1.0600000000000023
2011-08-09,46.3,47.58,44.96,47.49,456400,44.7,1.1900000000000048
2011-08-10,46.32,47.04,45.38,45.41,336500,42.74,-0.9100000000000037
2011-08-11,45.17,47.88,45.03,47.35,292700,44.57,2.1799999999999997
2011-08-12,47.66,48.25,47.1,47.8,185700,44.99,0.14000000000000057
2011-08-15,47.48,48.42,47.48,48.42,183700,45.57,0.9400000000000048
2011-08-16,47.92,48.63,47.78,47.98,274200,45.16,0.05999999999999517
2011-08-17,48.14,48.36,47.53,47.77,250100,44.96,-0.36999999999999744
2011-08-18,46.48,46.59,45.79,46.12,227300,43.41,-0.35999999999999943
2011-08-19,45.52,47.09,45.52,46.66,562000,43.92,1.1399999999999935
2011-08-22,47.8,47.82,46.5,46.69,380800,43.95,-1.1099999999999994
2011-08-23,46.88,47.85,46.52,47.83,276400,45.02,0.9499999999999957
2011-08-24,47.71,48.37,47.39,48.27,173200,45.43,0.5600000000000023
2011-08-25,48.64,48.7,47.11,47.36,155400,44.58,-1.2800000000000011
2011-08-26,46.99,48.56,46.65,48.5,258800,45.65,1.509999999999998
2011-08-29,49.42,50.22,49.23,50.11,154600,47.16,0.6899999999999977
2011-08-30,49.81,50.57,49.52,50.31,159300,47.35,0.5
2011-08-31,50.64,51.12,50.08,50.48,142800,47.51,-0.1600000000000037
2011-09-01,50.65,50.97,49.17,49.2,290500,46.31,-1.4499999999999957
2011-09-02,48.37,48.95,47.71,47.99,269100,45.17,-0.37999999999999545
2011-09-06,46.67,47.8,46.62,47.56,246900,44.76,0.8900000000000006
2011-09-07,48.24,48.56,47.98,48.51,180300,45.66,0.269999999999996
2011-09-08,48.26,48.98,47.98,48.85,491400,45.98,0.5900000000000034
2011-09-09,48.07,48.51,47.58,48.08,418300,45.25,0.00999999999999801
2011-09-12,47.67,48.25,47.09,47.88,208400,45.07,0.21000000000000085
2011-09-13,48.05,48.59,47.69,48.5,142800,45.65,0.45000000000000284
2011-09-14,48.87,49.76,48.11,49.23,196400,46.34,0.35999999999999943
2011-09-15,49.6,49.71,48.87,49.65,138800,46.73,0.04999999999999716
2011-09-16,49.71,50.08,49.06,49.23,370100,46.34,-0.480000000000004
2011-09-19,48.26,48.69,47.97,48.52,222000,45.67,0.2600000000000051
2011-09-20,48.77,49.14,48.09,48.13,192600,45.3,-0.6400000000000006
2011-09-21,48.0,48.01,46.47,46.68,228000,43.94,-1.3200000000000003
2011-09-22,45.72,46.29,45.3,45.8,375200,43.11,0.0799999999999983
2011-09-23,45.74,46.32,45.38,46.15,175900,43.44,0.4099999999999966
2011-09-26,46.41,47.06,45.38,47.01,135000,44.25,0.6000000000000014
2011-09-27,47.96,48.47,47.41,47.62,184300,44.82,-0.3400000000000034
2011-09-28,47.93,47.96,45.6,45.65,157200,42.97,-2.280000000000001
2011-09-29,46.38,46.53,45.54,46.47,167600,43.74,0.0899999999999963
2011-09-30,45.65,46.33,44.66,44.67,368900,42.04,-0.9799999999999969
2011-10-03,44.35,45.12,42.69,42.79,303900,40.27,-1.5600000000000023
2011-10-04,42.44,44.76,41.98,44.65,288300,42.03,2.210000000000001
2011-10-05,44.87,45.76,44.31,45.66,187700,42.98,0.7899999999999991
2011-10-06,45.64,46.76,45.5,46.48,141000,43.75,0.8399999999999963
2011-10-07,46.75,46.88,45.63,45.95,220400,43.25,-0.7999999999999972
2011-10-10,46.83,47.49,46.77,47.24,217700,44.46,0.4100000000000037
2011-10-11,47.01,47.78,46.89,47.68,205300,44.88,0.6700000000000017
2011-10-12,47.9,49.06,47.86,48.71,268000,45.85,0.8100000000000023
2011-10-13,48.42,48.44,47.51,48.24,134000,45.4,-0.17999999999999972
2011-10-14,48.58,48.72,48.07,48.64,113800,45.78,0.060000000000002274
2011-10-17,48.3,48.62,47.3,47.5,157300,44.71,-0.7999999999999972
2011-10-18,47.65,48.81,46.98,48.57,93600,45.71,0.9200000000000017
2011-10-19,48.62,48.69,47.43,47.51,144100,44.72,-1.1099999999999994
2011-10-20,47.44,47.97,46.92,47.95,106200,45.13,0.5100000000000051
2011-10-21,48.41,48.84,47.99,48.49,155100,45.64,0.0800000000000054
2011-10-24,48.75,49.78,48.4,49.58,240400,46.67,0.8299999999999983
2011-10-25,49.44,49.62,48.3,48.35,74900,45.51,-1.0899999999999963
2011-10-26,49.07,49.24,47.93,48.95,125300,46.07,-0.11999999999999744
2011-10-27,48.59,49.85,48.04,49.27,340000,46.37,0.6799999999999997
2011-10-28,49.07,49.69,48.93,49.13,142400,46.24,0.060000000000002274
2011-10-31,48.69,49.24,47.94,47.97,216200,45.15,-0.7199999999999989
2011-11-01,47.41,47.49,45.98,46.2,266400,43.48,-1.2099999999999937
2011-11-02,46.88,47.32,46.43,47.24,212600,44.46,0.35999999999999943
2011-11-03,47.72,49.0,47.17,48.86,198900,45.99,1.1400000000000006
2011-11-04,48.48,48.9,47.79,48.76,242800,45.89,0.28000000000000114
2011-11-07,48.56,48.77,47.66,48.51,201200,45.87,-0.05000000000000426
2011-11-08,48.69,48.71,47.84,48.41,362300,45.77,-0.28000000000000114
2011-11-09,47.43,47.68,46.75,47.18,241200,44.61,-0.25
2011-11-10,47.73,48.31,47.1,47.5,189000,44.91,-0.22999999999999687
2011-11-11,47.94,48.9,47.76,48.6,135900,45.95,0.6600000000000037
2011-11-14,48.34,48.6,47.83,48.18,114900,45.55,-0.1600000000000037
2011-11-15,48.04,48.82,47.81,48.59,141600,45.94,0.5500000000000043
2011-11-16,48.69,49.16,48.28,48.38,223800,45.74,-0.30999999999999517
2011-11-17,48.19,48.59,47.47,47.71,360500,45.11,-0.4799999999999969
2011-11-18,47.98,48.23,47.62,48.03,150200,45.41,0.05000000000000426
2011-11-21,47.31,47.67,46.87,47.45,235500,44.86,0.14000000000000057
2011-11-22,47.38,48.07,47.38,47.83,315000,45.22,0.44999999999999574
2011-11-23,47.41,47.66,46.52,46.92,225600,44.36,-0.4899999999999949
2011-11-25,46.81,47.33,46.48,46.51,102700,43.97,-0.30000000000000426
2011-11-28,47.56,48.22,47.56,48.16,231200,45.53,0.5999999999999943
2011-11-29,48.2,49.0,47.99,48.62,144800,45.97,0.4199999999999946
2011-11-30,49.71,50.83,49.7,50.79,477600,48.02,1.0799999999999983
2011-12-01,50.53,51.75,50.5,50.58,304700,47.82,0.04999999999999716
2011-12-02,51.0,51.65,50.52,50.95,273700,48.17,-0.04999999999999716
2011-12-05,51.0,51.9,50.95,51.25,260500,48.46,0.25
2011-12-06,50.98,51.25,50.61,50.71,273900,47.95,-0.269999999999996
2011-12-07,50.31,50.82,49.71,50.66,191000,47.9,0.3499999999999943
2011-12-08,50.35,50.7,49.68,49.86,177000,47.14,-0.490000000000002
2011-12-09,50.0,51.02,49.82,50.73,96200,47.96,0.7299999999999969
2011-12-12,50.12,50.36,49.44,49.94,189700,47.22,-0.17999999999999972
2011-12-13,50.37,50.8,49.27,49.66,198100,46.95,-0.7100000000000009
2011-12-14,49.44,49.71,48.8,48.99,183300,46.32,-0.44999999999999574
2011-12-15,49.52,49.93,49.06,49.93,176200,47.21,0.4099999999999966
2011-12-16,50.26,51.34,50.09,51.18,786800,48.39,0.9200000000000017
2011-12-19,51.47,51.66,49.85,50.01,211300,47.28,-1.4600000000000009
2011-12-20,50.9,52.35,50.9,52.19,239000,49.34,1.2899999999999991
2011-12-21,52.1,52.29,51.14,52.22,177100,49.37,0.11999999999999744
2011-12-22,52.3,52.56,51.68,52.19,109100,49.34,-0.10999999999999943
2011-12-23,52.19,52.73,52.14,52.58,76800,49.71,0.39000000000000057
2011-12-27,52.33,52.87,52.13,52.52,91600,49.66,0.19000000000000483
2011-12-28,52.58,52.58,51.63,51.89,92700,49.06,-0.6899999999999977
2011-12-29,51.79,52.8,51.79,52.49,135500,49.63,0.7000000000000028
2011-12-30,52.32,52.77,52.17,52.17,136400,49.33,-0.14999999999999858
2012-01-03,53.18,53.44,52.06,52.28,298700,49.43,-0.8999999999999986
2012-01-04,52.13,52.55,51.81,52.39,136500,49.53,0.259999999999998
2012-01-05,52.39,52.39,51.44,51.95,256100,49.12,-0.4399999999999977
2012-01-06,52.02,52.3,51.49,51.85,216700,49.02,-0.1700000000000017
2012-01-09,52.1,52.25,51.67,51.79,141800,48.97,-0.3100000000000023
2012-01-10,52.06,52.41,51.83,51.95,185000,49.12,-0.10999999999999943
2012-01-11,51.85,52.04,51.64,51.8,138900,48.98,-0.05000000000000426
2012-01-12,52.0,52.0,51.37,51.47,229000,48.66,-0.5300000000000011
2012-01-13,51.16,51.75,51.12,51.48,262200,48.67,0.3200000000000003
2012-01-17,51.84,52.12,51.49,51.68,130500,48.86,-0.1600000000000037
2012-01-18,51.61,52.23,51.56,52.09,178200,49.25,0.480000000000004
2012-01-19,52.13,52.37,51.78,52.37,200100,49.51,0.23999999999999488
2012-01-20,52.04,52.16,51.31,51.55,163100,48.74,-0.490000000000002
2012-01-23,51.53,51.8,51.46,51.58,188000,48.77,0.04999999999999716
2012-01-24,51.05,51.72,51.01,51.44,153000,48.64,0.39000000000000057
2012-01-25,51.32,51.83,51.02,51.76,172600,48.94,0.4399999999999977
2012-01-26,52.06,52.45,51.93,52.15,353700,49.31,0.0899999999999963
2012-01-27,52.05,52.55,51.93,52.28,101400,49.43,0.23000000000000398
2012-01-30,51.75,52.37,51.26,52.13,238800,49.5,0.38000000000000256
2012-01-31,52.44,52.58,51.94,52.42,219700,49.77,-0.01999999999999602
2012-02-01,52.75,53.62,52.67,53.54,193900,50.83,0.7899999999999991
2012-02-02,53.68,53.71,52.49,52.8,202900,50.13,-0.8800000000000026
2012-02-03,53.45,53.8,53.29,53.5,145900,50.8,0.04999999999999716
2012-02-06,53.35,53.68,53.25,53.5,148700,50.8,0.14999999999999858
2012-02-07,53.47,53.82,52.99,53.44,101900,50.74,-0.030000000000001137
2012-02-08,53.6,53.6,53.1,53.19,143100,50.5,-0.4100000000000037
2012-02-09,53.39,53.76,53.01,53.76,174100,51.04,0.36999999999999744
2012-02-10,52.75,53.27,51.15,53.04,342300,50.36,0.28999999999999915
2012-02-13,53.28,53.57,51.93,52.42,249300,49.77,-0.8599999999999994
2012-02-14,52.32,52.42,51.96,52.33,152900,49.69,0.00999999999999801
2012-02-15,52.37,52.83,52.01,52.41,191800,49.76,0.03999999999999915
2012-02-16,52.41,53.33,52.19,52.75,129500,50.08,0.3400000000000034
2012-02-17,52.92,53.14,52.75,52.82,78300,50.15,-0.10000000000000142
2012-02-21,53.03,53.07,52.3,52.5,140000,49.85,-0.5300000000000011
2012-02-22,52.31,52.77,51.65,52.45,136000,49.8,0.14000000000000057
2012-02-23,52.5,53.26,52.09,53.16,119400,50.47,0.6599999999999966
2012-02-24,53.06,53.6,52.76,53.23,318900,50.54,0.1699999999999946
2012-02-27,53.04,53.47,52.2,53.23,243600,50.54,0.18999999999999773
2012-02-28,53.2,53.44,52.5,52.75,434500,50.08,-0.45000000000000284
2012-02-29,52.83,53.14,52.52,52.78,390700,50.11,-0.04999999999999716
2012-03-01,53.01,53.1,52.54,52.94,257300,50.27,-0.07000000000000028
2012-03-02,52.83,53.24,52.83,53.2,225700,50.51,0.37000000000000455
2012-03-05,53.02,53.47,52.81,53.35,249100,50.65,0.3299999999999983
2012-03-06,52.75,52.75,51.96,52.16,397500,49.52,-0.5900000000000034
2012-03-07,52.24,52.7,51.96,52.19,354500,49.55,-0.05000000000000426
2012-03-08,52.39,53.48,52.39,53.27,222900,50.58,0.8800000000000026
2012-03-09,53.4,53.9,53.29,53.54,166700,50.83,0.14000000000000057
2012-03-12,53.51,53.72,53.27,53.6,152400,50.89,0.09000000000000341
2012-03-13,53.92,54.42,53.66,54.41,155700,51.66,0.4899999999999949
2012-03-14,54.43,54.62,54.3,54.46,251900,51.71,0.030000000000001137
2012-03-15,54.39,54.92,54.23,54.89,228400,52.12,0.5
2012-03-16,54.3,54.87,53.99,54.74,584200,51.97,0.44000000000000483
2012-03-19,54.55,54.96,54.39,54.59,169500,51.83,0.04000000000000625
2012-03-20,54.37,54.7,54.32,54.4,174300,51.65,0.030000000000001137
2012-03-21,54.16,54.52,53.86,54.28,205500,51.54,0.12000000000000455
2012-03-22,53.96,54.04,53.23,54.0,200400,51.27,0.03999999999999915
2012-03-23,53.94,54.33,53.87,54.29,120300,51.55,0.3500000000000014
2012-03-26,54.53,54.92,54.46,54.92,154000,52.15,0.39000000000000057
2012-03-27,54.92,54.93,54.58,54.79,152400,52.02,-0.13000000000000256
2012-03-28,54.7,55.0,54.47,54.94,335300,52.16,0.23999999999999488
2012-03-29,54.69,55.0,54.49,54.91,202200,52.14,0.21999999999999886
2012-03-30,55.0,55.0,54.71,54.77,187500,52.0,-0.22999999999999687
2012-04-02,54.76,55.49,54.53,55.0,314600,52.22,0.240000000000002
2012-04-03,55.04,55.36,54.62,55.26,194200,52.47,0.21999999999999886
2012-04-04,54.92,54.94,54.0,54.79,168400,52.02,-0.13000000000000256
2012-04-05,54.64,54.88,54.16,54.34,169400,51.59,-0.29999999999999716
2012-04-09,53.71,54.36,53.59,54.15,267000,51.41,0.4399999999999977
2012-04-10,53.9,54.26,53.26,53.34,453300,50.65,-0.5599999999999952
2012-04-11,54.24,54.24,52.03,53.9,212700,51.18,-0.3400000000000034
2012-04-12,53.91,54.64,53.91,54.5,154100,51.75,0.5900000000000034
2012-04-13,54.27,54.42,53.95,54.08,164900,51.35,-0.19000000000000483
2012-04-16,54.13,54.47,53.73,54.27,134200,51.53,0.14000000000000057
2012-04-17,54.65,54.76,54.36,54.5,306900,51.75,-0.14999999999999858
2012-04-18,54.33,54.55,54.15,54.48,165600,51.73,0.14999999999999858
2012-04-19,54.55,55.05,54.18,54.54,247400,51.78,-0.00999999999999801
2012-04-20,54.67,55.0,54.6,54.89,166600,52.12,0.21999999999999886
2012-04-23,54.39,54.39,53.82,54.26,152300,51.52,-0.13000000000000256
2012-04-24,54.11,54.26,53.8,54.03,304000,51.51,-0.0799999999999983
2012-04-25,54.36,55.11,54.04,55.02,278400,52.45,0.6600000000000037
2012-04-26,54.33,54.91,53.55,54.5,373600,51.96,0.1700000000000017
2012-04-27,54.43,55.11,54.39,54.79,354100,52.23,0.35999999999999943
2012-04-30,54.76,54.99,54.3,54.51,269000,51.97,-0.25
2012-05-01,54.4,55.26,54.2,54.67,216400,52.12,0.2700000000000031
2012-05-02,54.35,54.85,54.08,54.53,267000,51.99,0.17999999999999972
2012-05-03,54.63,55.39,54.48,54.83,326100,52.27,0.19999999999999574
2012-05-04,54.62,54.71,53.61,53.72,265500,51.21,-0.8999999999999986
2012-05-07,53.51,53.81,53.45,53.59,157000,51.09,0.0800000000000054
2012-05-08,53.23,53.87,52.69,53.79,342600,51.28,0.5600000000000023
2012-05-09,53.49,53.88,52.95,53.72,199000,51.21,0.22999999999999687
2012-05-10,54.11,54.11,53.34,53.57,131400,51.07,-0.5399999999999991
2012-05-11,53.35,53.88,53.28,53.39,122000,50.9,0.03999999999999915
2012-05-14,52.83,52.85,52.31,52.33,132000,49.89,-0.5
2012-05-15,52.49,52.61,51.61,51.74,243000,49.33,-0.75
2012-05-16,52.0,52.15,51.24,51.28,245400,48.89,-0.7199999999999989
2012-05-17,51.39,51.54,50.14,50.14,257200,47.8,-1.25
2012-05-18,50.35,50.56,49.63,49.7,171400,47.38,-0.6499999999999986
2012-05-21,49.82,50.7,49.74,50.56,240700,48.2,0.740000000000002
2012-05-22,50.67,50.96,50.33,50.59,246000,48.23,-0.0799999999999983
2012-05-23,50.12,51.22,49.9,51.05,270000,48.67,0.9299999999999997
2012-05-24,51.18,51.41,50.46,51.06,209700,48.68,-0.11999999999999744
2012-05-25,51.1,51.27,50.54,50.61,146500,48.25,-0.490000000000002
2012-05-29,51.03,51.62,50.63,50.71,272900,48.34,-0.3200000000000003
2012-05-30,50.46,50.46,49.84,49.87,280000,47.54,-0.5900000000000034
2012-05-31,50.03,51.09,49.94,50.67,2431400,48.31,0.6400000000000006
2012-06-01,49.56,50.44,49.36,50.26,376100,47.91,0.6999999999999957
2012-06-04,50.25,50.36,49.69,50.22,179600,47.88,-0.030000000000001137
2012-06-05,49.96,50.49,49.86,50.4,150400,48.05,0.4399999999999977
2012-06-06,50.95,51.65,50.76,51.58,226900,49.17,0.6299999999999955
2012-06-07,52.0,52.45,51.88,51.94,255900,49.52,-0.060000000000002274
2012-06-08,51.95,52.53,51.48,52.4,127300,49.96,0.44999999999999574
2012-06-11,52.75,52.93,51.71,51.77,94000,49.35,-0.9799999999999969
2012-06-12,51.97,52.54,51.87,52.37,166900,49.93,0.3999999999999986
2012-06-13,52.19,52.66,51.85,51.97,185400,49.55,-0.21999999999999886
2012-06-14,52.14,52.57,51.91,52.38,174300,49.94,0.240000000000002
2012-06-15,52.56,52.74,52.24,52.27,235700,49.83,-0.28999999999999915
2012-06-18,52.18,52.85,51.89,52.62,131300,50.16,0.4399999999999977
2012-06-19,52.64,53.26,52.42,52.43,267100,49.98,-0.21000000000000085
2012-06-20,52.18,52.58,51.98,52.24,138800,49.8,0.060000000000002274
2012-06-21,52.2,52.48,51.0,51.13,144200,48.74,-1.0700000000000003
2012-06-22,51.4,51.8,51.16,51.72,406900,49.31,0.3200000000000003
2012-06-25,51.19,51.2,50.5,50.71,127100,48.34,-0.4799999999999969
2012-06-26,50.71,50.97,50.32,50.58,107000,48.22,-0.13000000000000256
2012-06-27,50.79,51.24,50.65,50.73,207600,48.36,-0.060000000000002274
2012-06-28,50.53,50.71,50.06,50.53,227900,48.17,0.0
2012-06-29,51.34,51.7,51.02,51.05,355100,48.67,-0.29000000000000625
2012-07-02,51.07,51.94,50.92,51.78,196500,49.36,0.7100000000000009
2012-07-03,51.7,52.62,51.7,52.53,82200,50.08,0.8299999999999983
2012-07-05,52.46,52.74,52.35,52.5,267300,50.05,0.03999999999999915
2012-07-06,52.15,52.4,51.07,51.46,237600,49.06,-0.6899999999999977
2012-07-09,49.49,50.21,47.56,49.72,716500,47.4,0.22999999999999687
2012-07-10,49.43,49.57,48.83,49.47,461200,47.16,0.03999999999999915
2012-07-11,49.38,49.45,48.9,49.23,426400,46.93,-0.15000000000000568
2012-07-12,49.09,49.22,48.67,49.05,259200,46.76,-0.04000000000000625
2012-07-13,49.25,49.89,49.01,49.84,237300,47.51,0.5900000000000034
2012-07-16,49.81,49.92,49.35,49.64,150200,47.32,-0.1700000000000017
2012-07-17,49.65,49.88,49.15,49.82,244600,47.5,0.1700000000000017
2012-07-18,49.48,50.53,49.42,50.31,187600,47.96,0.8300000000000054
2012-07-19,50.36,50.81,50.09,50.71,166600,48.34,0.3500000000000014
2012-07-20,50.39,50.55,50.07,50.11,90700,47.77,-0.28000000000000114
2012-07-23,49.47,49.94,48.92,49.78,141000,47.46,0.3100000000000023
2012-07-24,49.37,49.37,48.35,48.75,337100,46.48,-0.6199999999999974
2012-07-25,48.83,49.37,48.56,49.35,303000,47.05,0.5200000000000031
2012-07-26,50.01,50.14,49.44,49.81,316700,47.49,-0.19999999999999574
2012-07-27,50.12,51.96,49.47,50.65,458600,48.29,0.5300000000000011
2012-07-30,50.72,51.22,50.35,50.48,189100,48.12,-0.240000000000002
2012-07-31,50.34,50.55,49.86,50.01,231700,47.68,-0.3300000000000054
2012-08-01,50.12,50.16,49.0,49.22,219700,46.92,-0.8999999999999986
2012-08-02,48.67,48.99,48.08,48.57,294900,46.3,-0.10000000000000142
2012-08-03,49.3,50.15,49.3,50.06,218100,47.72,0.7600000000000051
2012-08-06,50.06,50.46,49.87,49.98,144900,47.65,-0.0800000000000054
2012-08-07,50.0,50.4,49.82,50.05,268600,47.93,0.04999999999999716
2012-08-08,49.97,50.26,49.89,49.92,129200,47.8,-0.04999999999999716
2012-08-09,49.92,50.02,49.51,49.83,176300,47.72,-0.09000000000000341
2012-08-10,49.83,50.02,49.65,49.89,114400,47.77,0.060000000000002274
2012-08-13,49.75,49.98,49.3,49.98,127100,47.86,0.22999999999999687
2012-08-14,50.18,50.23,49.87,49.97,203700,47.85,-0.21000000000000085
2012-08-15,50.01,50.37,49.87,50.36,118100,48.22,0.3500000000000014
2012-08-16,50.36,50.79,50.03,50.66,169100,48.51,0.29999999999999716
2012-08-17,50.57,50.87,50.25,50.62,115900,48.47,0.04999999999999716
2012-08-20,50.68,50.76,50.14,50.57,125000,48.42,-0.10999999999999943
2012-08-21,50.66,50.72,50.13,50.37,187800,48.23,-0.28999999999999915
2012-08-22,50.39,50.87,50.0,50.84,173300,48.68,0.45000000000000284
2012-08-23,50.86,50.86,50.25,50.52,123200,48.38,-0.3399999999999963
2012-08-24,50.35,50.91,50.35,50.82,130700,48.66,0.46999999999999886
2012-08-27,51.0,51.0,50.4,50.51,171500,48.37,-0.490000000000002
2012-08-28,50.43,51.04,50.2,50.98,259700,48.82,0.5499999999999972
2012-08-29,50.94,51.14,50.79,50.92,148500,48.76,-0.01999999999999602
2012-08-30,50.64,50.76,50.4,50.47,136600,48.33,-0.1700000000000017
2012-08-31,50.87,51.02,50.35,50.65,184300,48.5,-0.21999999999999886
2012-09-04,50.72,51.04,50.07,51.0,256900,48.84,0.28000000000000114
2012-09-05,51.1,51.23,50.33,50.61,459600,48.46,-0.490000000000002
2012-09-06,50.92,51.8,50.72,50.8,436800,48.64,-0.12000000000000455
2012-09-07,50.88,51.49,50.62,51.49,316600,49.3,0.6099999999999994
2012-09-10,50.7,51.43,50.33,51.11,153900,48.94,0.4099999999999966
2012-09-11,51.11,51.26,50.71,51.19,163000,49.02,0.0799999999999983
2012-09-12,51.05,51.42,50.99,51.28,114100,49.1,0.23000000000000398
2012-09-13,51.35,52.38,51.35,52.14,245500,49.93,0.7899999999999991
2012-09-14,52.18,52.59,52.18,52.46,191900,50.23,0.28000000000000114
2012-09-17,52.43,52.56,52.24,52.4,241800,50.18,-0.030000000000001137
2012-09-18,52.24,52.41,51.85,52.1,251000,49.89,-0.14000000000000057
2012-09-19,52.25,52.55,51.95,52.41,137300,50.19,0.1599999999999966
2012-09-20,52.24,52.76,52.1,52.68,213700,50.44,0.4399999999999977
2012-09-21,53.11,53.19,52.57,52.67,418800,50.43,-0.4399999999999977
2012-09-24,52.17,52.76,52.17,52.65,251900,50.42,0.4799999999999969
2012-09-25,52.73,53.03,51.9,51.99,230200,49.78,-0.7399999999999949
2012-09-26,52.09,52.09,51.36,51.81,143200,49.61,-0.28000000000000114
2012-09-27,51.86,51.93,51.28,51.62,226300,49.43,-0.240000000000002
2012-09-28,51.32,51.82,51.09,51.71,416700,49.52,0.39000000000000057
2012-10-01,51.71,51.92,51.04,51.74,452200,49.54,0.030000000000001137
2012-10-02,51.91,51.99,51.44,51.87,188800,49.67,-0.03999999999999915
2012-10-03,51.95,52.37,51.77,52.03,169800,49.82,0.0799999999999983
2012-10-04,52.22,52.4,51.95,52.31,145400,50.09,0.09000000000000341
2012-10-05,52.6,53.0,52.48,52.57,141800,50.34,-0.030000000000001137
2012-10-08,52.45,52.72,52.21,52.41,164300,50.19,-0.04000000000000625
2012-10-09,52.31,52.38,51.62,51.68,154000,49.49,-0.6300000000000026
2012-10-10,51.7,51.72,51.11,51.19,173800,49.02,-0.5100000000000051
2012-10-11,51.49,51.7,51.19,51.27,83700,49.09,-0.21999999999999886
2012-10-12,51.27,51.58,51.18,51.23,147100,49.06,-0.04000000000000625
2012-10-15,51.21,51.52,50.93,51.45,135300,49.27,0.240000000000002
2012-10-16,51.48,52.16,51.47,52.11,135000,49.9,0.6300000000000026
2012-10-17,52.22,53.06,52.05,53.0,153500,50.75,0.7800000000000011
2012-10-18,52.86,52.94,52.67,52.74,92200,50.5,-0.11999999999999744
2012-10-19,52.66,52.78,51.95,52.34,122600,50.12,-0.3199999999999932
2012-10-22,52.3,52.65,52.19,52.58,143100,50.35,0.28000000000000114
2012-10-23,52.15,52.15,51.2,51.71,92000,49.52,-0.4399999999999977
2012-10-24,51.94,51.94,51.26,51.42,132900,49.24,-0.519999999999996
2012-10-25,51.69,51.69,51.05,51.3,224900,49.12,-0.39000000000000057
2012-10-26,51.49,51.79,51.29,51.65,98400,49.46,0.1599999999999966
2012-10-31,50.8,51.62,49.97,51.28,199500,49.1,0.480000000000004
2012-11-01,51.39,53.36,51.25,53.13,428300,50.87,1.740000000000002
2012-11-02,52.4,53.02,49.17,49.49,615200,47.39,-2.9099999999999966
2012-11-05,49.7,50.49,49.16,49.67,353900,47.77,-0.030000000000001137
2012-11-06,49.55,50.75,49.53,50.16,403900,48.25,0.6099999999999994
2012-11-07,49.74,49.74,48.86,48.92,286300,47.05,-0.8200000000000003
2012-11-08,48.81,49.02,48.27,48.27,182400,46.43,-0.5399999999999991
2012-11-09,48.09,48.48,48.0,48.02,276000,46.19,-0.07000000000000028
2012-11-12,48.0,48.35,47.86,47.89,201300,46.06,-0.10999999999999943
2012-11-13,47.61,47.85,46.99,47.15,788600,45.35,-0.46000000000000085
2012-11-14,47.12,47.38,46.03,46.04,285200,44.28,-1.0799999999999983
2012-11-15,46.0,46.29,45.53,45.8,716300,44.05,-0.20000000000000284
2012-11-16,45.8,46.22,45.19,46.19,420800,44.43,0.39000000000000057
2012-11-19,46.59,46.99,46.4,46.94,329900,45.15,0.3499999999999943
2012-11-20,46.79,46.97,46.5,46.97,270500,45.18,0.17999999999999972
2012-11-21,47.05,47.54,46.76,46.95,200800,45.16,-0.09999999999999432
2012-11-23,47.16,47.63,47.16,47.62,111400,45.8,0.46000000000000085
2012-11-26,47.41,47.93,47.41,47.79,352700,45.97,0.38000000000000256
2012-11-27,47.68,48.12,47.19,47.31,394000,45.5,-0.36999999999999744
2012-11-28,46.74,47.78,46.71,47.58,184800,45.76,0.8399999999999963
2012-11-29,47.9,48.09,47.42,47.77,126300,45.95,-0.12999999999999545
2012-11-30,47.8,48.03,47.38,47.67,306900,45.85,-0.12999999999999545
2012-12-03,48.02,48.07,46.77,46.95,251600,45.16,-1.0700000000000003
2012-12-04,46.89,47.32,46.61,47.08,271800,45.28,0.18999999999999773
2012-12-05,47.18,47.36,46.89,47.25,219500,45.45,0.07000000000000028
2012-12-06,47.2,47.68,46.91,47.68,168200,45.86,0.4799999999999969
2012-12-07,47.77,47.9,47.58,47.7,240000,45.88,-0.07000000000000028
2012-12-10,47.62,47.9,47.38,47.78,222000,45.96,0.1600000000000037
2012-12-11,48.01,48.1,47.59,47.74,286900,45.92,-0.269999999999996
2012-12-12,47.95,48.09,47.55,47.57,120800,45.75,-0.38000000000000256
2012-12-13,47.56,47.81,46.84,47.2,280600,45.4,-0.35999999999999943
2012-12-14,47.15,47.44,46.85,46.92,229500,45.13,-0.22999999999999687
2012-12-17,46.99,47.46,46.98,47.38,179600,45.57,0.39000000000000057
2012-12-18,47.4,47.6,47.09,47.56,377100,45.74,0.1600000000000037
2012-12-19,47.56,48.55,47.56,48.07,247000,46.24,0.509999999999998
2012-12-20,48.05,48.35,48.0,48.19,322400,46.35,0.14000000000000057
2012-12-21,47.69,48.35,47.33,47.76,919100,45.94,0.07000000000000028
2012-12-24,47.65,48.1,47.27,47.99,95700,46.16,0.3400000000000034
2012-12-26,47.99,48.05,47.41,47.54,138300,45.73,-0.45000000000000284
2012-12-27,47.42,47.95,47.19,47.77,182400,45.95,0.3500000000000014
2012-12-28,47.44,47.88,47.32,47.34,138000,45.53,-0.09999999999999432
2012-12-31,47.19,48.04,47.04,47.72,575700,45.9,0.5300000000000011
2013-01-02,48.95,48.99,48.14,48.76,261500,46.9,-0.19000000000000483
2013-01-03,48.76,49.33,48.64,48.95,181600,47.08,0.19000000000000483
2013-01-04,48.95,49.63,48.94,49.62,284500,47.73,0.6699999999999946
2013-01-07,49.37,49.43,49.1,49.2,118300,47.32,-0.1699999999999946
2013-01-08,51.11,51.77,50.18,51.72,545300,49.75,0.6099999999999994
2013-01-09,51.84,51.87,50.94,51.18,259700,49.23,-0.6600000000000037
2013-01-10,51.45,51.45,50.82,50.88,158000,48.94,-0.5700000000000003
2013-01-11,50.59,51.14,50.59,51.04,263400,49.09,0.44999999999999574
2013-01-14,50.88,51.39,50.82,51.23,168600,49.27,0.3499999999999943
2013-01-15,50.75,51.58,50.75,51.55,167600,49.58,0.7999999999999972
2013-01-16,51.55,51.64,51.36,51.57,128500,49.6,0.020000000000003126
2013-01-17,51.84,52.23,51.74,52.04,181100,50.05,0.19999999999999574
2013-01-18,52.11,52.33,51.9,52.33,137400,50.33,0.21999999999999886
2013-01-22,52.22,52.26,51.76,52.02,238500,50.03,-0.19999999999999574
2013-01-23,52.14,52.37,51.73,51.81,159500,49.83,-0.3299999999999983
2013-01-24,51.86,52.18,51.79,52.1,282500,50.11,0.240000000000002
2013-01-25,52.39,52.39,51.93,52.03,163000,50.04,-0.35999999999999943
2013-01-28,51.95,51.95,50.79,51.04,290900,49.33,-0.9100000000000037
2013-01-29,51.23,51.92,50.95,51.92,230900,50.18,0.6900000000000048
2013-01-30,51.89,52.15,51.67,51.86,288400,50.12,-0.030000000000001137
2013-01-31,51.59,51.93,51.39,51.53,547800,49.8,-0.060000000000002274
2013-02-01,52.01,52.25,51.42,52.23,216800,50.48,0.21999999999999886
2013-02-04,51.91,52.29,51.8,52.21,225100,50.46,0.30000000000000426
2013-02-05,52.36,52.62,52.22,52.55,177800,50.79,0.18999999999999773
2013-02-06,52.33,53.13,52.14,52.91,319900,51.14,0.5799999999999983
2013-02-07,52.99,52.99,52.25,52.87,250600,51.1,-0.12000000000000455
2013-02-08,53.05,53.43,52.38,52.51,404000,50.75,-0.5399999999999991
2013-02-11,52.47,52.58,51.88,52.43,193700,50.67,-0.03999999999999915
2013-02-12,52.56,52.72,52.34,52.71,156800,50.94,0.14999999999999858
2013-02-13,52.91,53.17,52.54,53.17,208000,51.39,0.2600000000000051
2013-02-14,53.02,53.28,52.78,53.07,205000,51.29,0.04999999999999716
2013-02-15,53.1,53.31,52.96,53.11,115200,51.33,0.00999999999999801
2013-02-19,53.36,53.85,53.17,53.75,228700,51.95,0.39000000000000057
2013-02-20,53.7,53.78,52.2,52.27,326200,50.52,-1.4299999999999997
2013-02-21,52.32,52.46,51.95,52.23,236700,50.48,-0.09000000000000341
2013-02-22,52.48,52.85,52.33,52.82,192800,51.05,0.3400000000000034
2013-02-25,52.94,53.0,52.09,52.1,158700,50.35,-0.8399999999999963
2013-02-26,52.26,52.57,52.17,52.46,143500,50.7,0.20000000000000284
2013-02-27,52.5,53.59,52.5,53.4,153500,51.61,0.8999999999999986
2013-02-28,53.32,53.99,53.32,53.94,406300,52.13,0.6199999999999974
2013-03-01,53.66,53.8,53.08,53.47,355800,51.68,-0.18999999999999773
2013-03-04,53.28,53.56,52.97,53.4,165700,51.61,0.11999999999999744
2013-03-05,53.4,53.94,53.4,53.8,121200,52.0,0.3999999999999986
2013-03-06,53.99,54.51,53.82,54.38,173100,52.56,0.39000000000000057
2013-03-07,54.47,54.71,54.3,54.53,168800,52.7,0.060000000000002274
2013-03-08,54.79,55.25,54.61,55.25,138000,53.4,0.46000000000000085
2013-03-11,55.17,55.37,55.0,55.35,239000,53.49,0.17999999999999972
2013-03-12,55.46,55.62,55.09,55.36,244900,53.5,-0.10000000000000142
2013-03-13,55.37,55.61,54.95,55.33,209900,53.48,-0.03999999999999915
2013-03-14,55.56,55.7,55.0,55.48,195800,53.62,-0.0800000000000054
2013-03-15,55.39,55.74,55.24,55.7,378800,53.83,0.3100000000000023
2013-03-18,55.34,55.88,55.27,55.56,106800,53.7,0.21999999999999886
2013-03-19,55.77,55.93,55.16,55.81,165800,53.94,0.03999999999999915
2013-03-20,56.0,56.88,55.86,56.65,230800,54.75,0.6499999999999986
2013-03-21,56.36,56.61,56.05,56.26,227600,54.37,-0.10000000000000142
2013-03-22,56.27,56.4,55.9,56.24,180700,54.35,-0.030000000000001137
2013-03-25,56.39,56.75,55.63,56.0,167800,54.12,-0.39000000000000057
2013-03-26,56.7,56.8,56.27,56.65,248000,54.75,-0.05000000000000426
2013-03-27,56.35,56.9,56.19,56.84,85400,54.93,0.490000000000002
2013-03-28,56.83,57.47,56.72,57.35,240600,55.43,0.5200000000000031
2013-04-01,57.42,57.42,56.72,56.97,113500,55.06,-0.45000000000000284
2013-04-02,57.27,57.27,56.75,57.23,174100,55.31,-0.04000000000000625
2013-04-03,57.12,57.15,56.4,56.64,395200,54.74,-0.4799999999999969
2013-04-04,56.7,56.81,56.2,56.67,151100,54.77,-0.030000000000001137
2013-04-05,56.28,56.3,55.75,56.09,114000,54.21,-0.18999999999999773
2013-04-08,56.25,56.43,55.89,56.39,141500,54.5,0.14000000000000057
2013-04-09,56.53,56.66,56.09,56.44,145700,54.55,-0.09000000000000341
2013-04-10,56.59,57.25,56.58,57.25,207800,55.33,0.6599999999999966
2013-04-11,57.17,57.69,57.13,57.48,113100,55.55,0.30999999999999517
2013-04-12,57.17,57.43,56.77,56.9,100400,54.99,-0.2700000000000031
2013-04-15,56.62,56.68,55.28,55.39,267400,53.53,-1.2299999999999969
2013-04-16,55.63,55.98,55.42,55.86,187000,53.99,0.22999999999999687
2013-04-17,55.52,55.52,54.47,55.01,138200,53.17,-0.5100000000000051
2013-04-18,55.1,55.17,54.45,54.57,96900,52.74,-0.5300000000000011
2013-04-19,54.71,55.26,54.4,55.08,205400,53.23,0.36999999999999744
2013-04-22,55.28,55.73,54.75,55.46,81300,53.6,0.17999999999999972
2013-04-23,55.74,56.19,55.4,56.16,90100,54.28,0.4199999999999946
2013-04-24,56.2,56.64,55.45,56.5,220800,54.85,0.29999999999999716
2013-04-25,56.61,56.84,56.13,56.17,239700,54.53,-0.4399999999999977
2013-04-26,56.17,56.17,54.96,55.39,239300,53.77,-0.7800000000000011
2013-04-29,55.74,55.76,55.06,55.35,386200,53.73,-0.39000000000000057
2013-04-30,55.19,56.12,55.02,56.1,656300,54.46,0.9100000000000037
2013-05-01,56.01,56.01,55.31,55.47,242100,53.85,-0.5399999999999991
2013-05-02,55.51,56.04,55.45,55.6,154300,53.98,0.09000000000000341
2013-05-03,56.07,56.47,55.85,55.99,209800,54.35,-0.0799999999999983
2013-05-06,56.05,56.31,55.8,56.07,204700,54.43,0.020000000000003126
2013-05-07,56.05,56.26,55.76,56.14,228400,54.5,0.09000000000000341
2013-05-08,56.14,56.46,55.96,56.46,317700,54.81,0.3200000000000003
2013-05-09,56.42,56.53,55.91,55.96,141300,54.33,-0.46000000000000085
2013-05-10,56.08,56.99,56.08,56.49,393300,54.84,0.4100000000000037
2013-05-13,56.55,56.72,55.96,55.98,230900,54.35,-0.5700000000000003
2013-05-14,55.86,56.33,55.74,56.3,247400,54.66,0.4399999999999977
2013-05-15,56.09,56.68,56.09,56.67,159100,55.02,0.5799999999999983
2013-05-16,56.6,57.03,56.35,56.57,153000,54.92,-0.030000000000001137
2013-05-17,56.81,57.16,56.71,57.07,171000,55.4,0.259999999999998
2013-05-20,56.93,57.29,56.93,57.06,122400,55.39,0.13000000000000256
2013-05-21,56.95,57.17,56.63,56.99,104400,55.33,0.03999999999999915
2013-05-22,56.99,57.52,56.34,56.61,114700,54.96,-0.38000000000000256
2013-05-23,56.2,56.72,55.9,56.69,198400,55.03,0.4899999999999949
2013-05-24,56.4,56.51,55.87,56.22,103200,54.58,-0.17999999999999972
2013-05-28,56.73,57.14,56.23,56.47,166400,54.82,-0.259999999999998
2013-05-29,56.16,56.61,56.03,56.27,131700,54.63,0.11000000000000654
2013-05-30,56.3,57.35,56.3,57.24,267500,55.57,0.9400000000000048
2013-05-31,57.0,57.3,56.72,56.72,217400,55.06,-0.28000000000000114
2013-06-03,56.71,57.04,56.3,56.85,217100,55.19,0.14000000000000057
2013-06-04,56.84,57.31,56.34,56.58,208200,54.93,-0.2600000000000051
2013-06-05,56.42,56.52,55.67,55.78,160300,54.15,-0.6400000000000006
2013-06-06,55.83,56.28,55.68,56.28,146700,54.64,0.45000000000000284
2013-06-07,56.47,57.15,56.45,57.0,93900,55.34,0.5300000000000011
2013-06-10,57.19,57.76,56.83,57.19,151700,55.52,0.0
2013-06-11,56.56,57.18,56.34,56.85,99100,55.19,0.28999999999999915
2013-06-12,57.02,57.29,55.67,56.05,158100,54.41,-0.970000000000006
2013-06-13,55.92,57.35,55.92,57.29,96200,55.62,1.3699999999999974
2013-06-14,57.26,57.34,56.81,57.04,68200,55.37,-0.21999999999999886
2013-06-17,57.32,57.43,56.94,57.14,164000,55.47,-0.17999999999999972
2013-06-18,57.2,57.58,57.2,57.34,155000,55.67,0.14000000000000057
2013-06-19,57.19,57.47,56.57,56.6,132100,54.95,-0.5899999999999963
2013-06-20,56.04,56.35,55.27,55.32,118400,53.7,-0.7199999999999989
2013-06-21,55.47,55.52,54.59,55.03,391300,53.42,-0.4399999999999977
2013-06-24,54.47,55.11,54.13,54.83,146400,53.23,0.35999999999999943
2013-06-25,55.28,55.37,54.35,54.86,181000,53.26,-0.4200000000000017
2013-06-26,55.2,55.43,54.63,54.96,188200,53.36,-0.240000000000002
2013-06-27,55.21,55.73,55.0,55.41,90500,53.79,0.19999999999999574
2013-06-28,55.36,55.62,55.04,55.21,516700,53.6,-0.14999999999999858
2013-07-01,55.49,56.44,55.36,55.95,150300,54.32,0.46000000000000085
2013-07-02,55.83,56.38,55.45,55.8,146800,54.17,-0.030000000000001137
2013-07-03,55.66,55.91,55.36,55.88,56400,54.25,0.22000000000000597
2013-07-05,56.28,56.63,55.64,56.62,82900,54.97,0.3399999999999963
2013-07-08,56.79,57.03,56.6,56.9,135300,55.24,0.10999999999999943
2013-07-09,57.24,57.89,57.02,57.8,161200,56.11,0.5599999999999952
2013-07-10,57.6,58.26,57.53,58.09,111400,56.39,0.490000000000002
2013-07-11,58.78,59.36,58.67,59.32,183200,57.59,0.5399999999999991
2013-07-12,59.36,59.66,59.19,59.65,152900,57.91,0.28999999999999915
2013-07-15,59.6,59.79,59.24,59.76,128100,58.01,0.1599999999999966
2013-07-16,59.8,59.87,59.27,59.43,156100,57.69,-0.36999999999999744
2013-07-17,59.81,59.81,59.13,59.38,235100,57.65,-0.4299999999999997
2013-07-18,59.5,59.89,59.14,59.83,147100,58.08,0.3299999999999983
2013-07-19,59.85,59.93,59.41,59.58,138000,57.84,-0.2700000000000031
2013-07-22,59.71,60.11,59.53,59.64,121700,57.9,-0.07000000000000028
2013-07-23,59.88,59.9,59.32,59.57,82000,57.83,-0.3100000000000023
2013-07-24,59.82,59.82,58.63,58.7,226500,56.99,-1.1199999999999974
2013-07-25,58.64,59.99,58.34,58.34,262600,56.64,-0.29999999999999716
2013-07-26,58.17,58.42,57.55,57.94,179500,56.25,-0.23000000000000398
2013-07-29,57.69,58.64,57.69,58.49,350300,57.03,0.8000000000000043
2013-07-30,58.81,58.89,58.23,58.39,326800,56.93,-0.4200000000000017
2013-07-31,58.7,58.75,58.25,58.39,443300,56.93,-0.3100000000000023
2013-08-01,59.12,60.29,59.12,59.91,530700,58.41,0.7899999999999991
2013-08-02,60.07,60.74,59.75,60.48,150600,58.97,0.4099999999999966
2013-08-05,60.43,60.59,59.81,59.97,103400,58.47,-0.46000000000000085
2013-08-06,60.12,60.21,59.27,59.47,187300,57.98,-0.6499999999999986
2013-08-07,59.47,59.53,59.0,59.5,141900,58.01,0.030000000000001137
2013-08-08,59.84,60.61,58.96,60.34,151400,58.83,0.5
2013-08-09,60.3,60.59,59.91,60.12,93800,58.62,-0.17999999999999972
2013-08-12,59.88,60.38,59.88,60.22,114100,58.71,0.3399999999999963
2013-08-13,60.39,60.49,59.82,60.35,81800,58.84,-0.03999999999999915
2013-08-14,60.29,60.58,60.11,60.31,73200,58.8,0.020000000000003126
2013-08-15,59.79,59.82,59.17,59.2,107100,57.72,-0.5899999999999963
2013-08-16,59.25,59.4,59.03,59.29,100600,57.81,0.03999999999999915
2013-08-19,59.24,59.44,59.12,59.24,120400,57.76,0.0
2013-08-20,59.34,59.59,59.21,59.34,139500,57.86,0.0
2013-08-21,59.04,59.36,58.77,58.9,158200,57.43,-0.14000000000000057
2013-08-22,59.11,60.04,59.11,59.59,76900,58.1,0.480000000000004
2013-08-23,59.79,59.88,59.43,59.84,56100,58.34,0.05000000000000426
2013-08-26,59.9,60.42,59.72,60.07,81900,58.57,0.1700000000000017
2013-08-27,59.34,59.77,58.68,58.75,114900,57.28,-0.5900000000000034
2013-08-28,58.56,58.98,58.56,58.81,102700,57.34,0.25
2013-08-29,58.69,59.44,58.69,59.21,85400,57.73,0.5200000000000031
2013-08-30,59.34,60.08,58.43,58.81,310300,57.34,-0.5300000000000011
2013-09-03,59.44,59.78,57.4,58.37,480700,56.91,-1.0700000000000003
2013-09-04,58.34,58.9,58.23,58.62,134300,57.15,0.27999999999999403
2013-09-05,58.56,58.89,58.47,58.49,85500,57.03,-0.07000000000000028
2013-09-06,58.62,58.91,57.76,58.51,84700,57.05,-0.10999999999999943
2013-09-09,58.7,59.48,58.3,59.15,148200,57.67,0.44999999999999574
2013-09-10,59.47,59.89,59.06,59.49,191100,58.0,0.020000000000003126
2013-09-11,59.29,59.73,59.29,59.51,131100,58.02,0.21999999999999886
2013-09-12,59.53,59.94,59.11,59.15,206400,57.67,-0.38000000000000256
2013-09-13,59.36,59.48,58.93,59.01,151400,57.53,-0.3500000000000014
2013-09-16,59.71,60.57,59.54,60.32,147100,58.81,0.6099999999999994
2013-09-17,60.4,60.5,59.36,59.51,208200,58.02,-0.8900000000000006
2013-09-18,59.51,60.34,59.17,60.22,239600,58.71,0.7100000000000009
2013-09-19,60.35,60.45,59.81,60.11,131500,58.61,-0.240000000000002
2013-09-20,60.5,60.51,60.1,60.24,361700,58.73,-0.259999999999998
2013-09-23,60.19,60.66,59.95,60.4,217800,58.89,0.21000000000000085
2013-09-24,60.37,60.75,60.08,60.41,141200,58.9,0.03999999999999915
2013-09-25,60.33,60.51,59.9,60.26,172500,58.75,-0.07000000000000028
2013-09-26,60.49,60.73,60.11,60.57,139700,59.06,0.0799999999999983
2013-09-27,60.3,60.46,59.63,59.65,267700,58.16,-0.6499999999999986
2013-09-30,59.25,60.17,59.15,60.13,321500,58.63,0.8800000000000026
2013-10-01,59.98,61.66,59.89,61.09,477500,59.56,1.1100000000000065
2013-10-02,60.2,60.37,59.44,60.28,280600,58.77,0.0799999999999983
2013-10-03,59.92,59.95,59.23,59.73,208500,58.24,-0.19000000000000483
2013-10-04,59.66,60.45,59.57,60.13,142400,58.63,0.47000000000000597
2013-10-07,59.77,60.32,59.19,60.26,304900,58.75,0.4899999999999949
2013-10-08,59.96,60.64,59.96,60.1,340900,58.6,0.14000000000000057
2013-10-09,60.18,60.29,59.46,59.77,312300,58.28,-0.4099999999999966
2013-10-10,60.48,60.95,60.37,60.93,88500,59.41,0.45000000000000284
2013-10-11,60.67,61.51,60.42,61.45,95900,59.91,0.7800000000000011
2013-10-14,61.08,61.94,60.79,61.92,124900,60.37,0.8400000000000034
2013-10-15,61.67,61.71,61.05,61.24,138400,59.71,-0.4299999999999997
2013-10-16,61.43,62.13,61.42,61.65,119700,60.11,0.21999999999999886
2013-10-17,61.41,62.77,61.35,62.75,143100,61.18,1.3400000000000034
2013-10-18,62.76,63.29,62.57,63.19,118200,61.61,0.4299999999999997
2013-10-21,63.18,63.57,63.07,63.55,99800,61.96,0.36999999999999744
2013-10-22,63.81,64.36,63.54,64.24,81200,62.63,0.4299999999999926
2013-10-23,63.93,64.18,63.01,63.35,127100,61.77,-0.5799999999999983
2013-10-24,63.43,63.92,63.12,63.56,186600,61.97,0.13000000000000256
2013-10-25,63.59,64.34,63.59,64.28,81800,62.67,0.6899999999999977
2013-10-28,64.12,64.5,63.93,64.17,104700,62.57,0.04999999999999716
2013-10-29,64.17,64.53,63.48,64.01,140500,62.41,-0.1599999999999966
2013-10-30,64.01,64.35,63.43,63.56,221600,61.97,-0.45000000000000284
2013-10-31,63.1,64.48,62.21,64.16,438600,62.56,1.0599999999999952
2013-11-01,64.42,64.7,63.52,63.89,188000,62.29,-0.5300000000000011
2013-11-04,63.94,64.14,63.49,64.08,198100,62.72,0.14000000000000057
2013-11-05,64.0,64.05,63.07,63.78,194500,62.43,-0.21999999999999886
2013-11-06,64.08,64.66,63.61,64.37,173300,63.01,0.29000000000000625
2013-11-07,64.58,64.77,63.36,63.41,168100,62.07,-1.1700000000000017
2013-11-08,63.29,64.44,63.29,64.25,101800,62.89,0.9600000000000009
2013-11-11,64.19,64.78,64.14,64.72,112200,63.35,0.5300000000000011
2013-11-12,64.75,64.75,63.99,64.4,154300,63.04,-0.3499999999999943
2013-11-13,63.94,65.1,63.94,65.09,106800,63.71,1.1500000000000057
2013-11-14,65.16,65.23,64.66,64.92,159400,63.55,-0.23999999999999488
2013-11-15,64.88,64.98,64.7,64.94,195400,63.57,0.060000000000002274
2013-11-18,65.09,65.1,64.68,64.78,202900,63.41,-0.3100000000000023
2013-11-19,64.71,64.9,64.31,64.39,166400,63.03,-0.3199999999999932
2013-11-20,64.57,64.8,63.75,63.89,697600,62.54,-0.6799999999999926
2013-11-21,64.09,64.44,63.9,64.1,353300,62.74,0.009999999999990905
2013-11-22,64.18,64.58,63.8,64.2,266300,62.84,0.01999999999999602
2013-11-25,64.42,64.61,64.1,64.24,577500,62.88,-0.18000000000000682
2013-11-26,64.22,64.59,63.72,64.37,163300,63.01,0.15000000000000568
2013-11-27,64.63,65.04,64.35,64.95,417500,63.58,0.3200000000000074
2013-11-29,64.95,65.25,64.88,64.92,139400,63.55,-0.030000000000001137
2013-12-02,64.96,65.73,64.39,64.97,184800,63.59,0.010000000000005116
2013-12-03,64.75,64.93,63.96,64.21,264300,62.85,-0.5400000000000063
2013-12-04,63.85,64.13,63.1,63.81,154300,62.46,-0.03999999999999915
2013-12-05,63.65,64.11,63.41,64.08,146600,62.72,0.4299999999999997
2013-12-06,64.41,64.81,63.94,64.69,139400,63.32,0.28000000000000114
2013-12-09,64.57,64.7,64.18,64.59,254000,63.22,0.020000000000010232
2013-12-10,64.4,64.57,64.19,64.28,155100,62.92,-0.12000000000000455
2013-12-11,64.4,64.52,63.14,63.21,219100,61.87,-1.1900000000000048
2013-12-12,63.19,63.66,63.19,63.4,140200,62.06,0.21000000000000085
2013-12-13,63.47,63.86,63.43,63.7,119300,62.35,0.23000000000000398
2013-12-16,64.09,64.56,63.87,64.37,186400,63.01,0.28000000000000114
2013-12-17,64.28,64.68,64.14,64.47,196500,63.11,0.18999999999999773
2013-12-18,64.73,65.12,63.82,65.08,226200,63.7,0.3499999999999943
2013-12-19,64.88,65.4,64.5,64.78,166000,63.41,-0.09999999999999432
2013-12-20,64.83,65.46,64.78,65.36,333600,63.98,0.5300000000000011
2013-12-23,65.7,65.86,65.24,65.85,146500,64.46,0.14999999999999147
2013-12-24,65.93,66.4,65.63,66.39,110400,64.98,0.45999999999999375
2013-12-26,66.61,66.87,66.13,66.79,137200,65.38,0.18000000000000682
2013-12-27,66.95,67.1,66.35,66.72,106900,65.31,-0.23000000000000398
2013-12-30,66.76,67.57,66.66,67.53,158500,66.1,0.769999999999996
2013-12-31,67.51,67.86,67.35,67.81,154300,66.37,0.29999999999999716
2014-01-02,67.76,68.01,66.97,67.13,257400,65.71,-0.6300000000000097
2014-01-03,66.95,67.3,66.49,66.85,266700,65.44,-0.10000000000000853
2014-01-06,67.13,67.2,66.25,66.5,333500,65.09,-0.6299999999999955
2014-01-07,66.84,66.88,66.27,66.81,384500,65.4,-0.030000000000001137
2014-01-08,67.11,68.29,66.89,68.21,594200,66.77,1.0999999999999943
2014-01-09,68.36,68.68,67.48,67.75,402300,66.32,-0.6099999999999994
2014-01-10,67.74,68.16,67.6,68.05,366800,66.61,0.3100000000000023
2014-01-13,68.19,68.66,67.0,67.13,531900,65.71,-1.0600000000000023
2014-01-14,67.42,68.62,67.3,68.25,459100,66.81,0.8299999999999983
2014-01-15,68.6,68.78,67.63,68.0,488700,66.56,-0.5999999999999943
2014-01-16,67.9,68.27,67.79,68.0,466900,66.56,0.09999999999999432
2014-01-17,68.03,68.19,67.2,67.24,1867400,65.82,-0.7900000000000063
2014-01-21,67.57,67.73,66.85,67.17,395100,65.75,-0.3999999999999915
2014-01-22,67.43,67.43,66.86,66.99,369100,65.57,-0.44000000000001194
2014-01-23,66.93,66.98,65.91,66.3,332800,64.9,-0.6300000000000097
2014-01-24,66.05,66.05,64.44,64.48,312400,63.12,-1.5699999999999932
2014-01-27,64.16,64.62,63.4,63.4,351700,62.3,-0.759999999999998
2014-01-28,63.64,63.78,63.3,63.67,269700,62.56,0.030000000000001137
2014-01-29,63.15,63.96,62.84,63.36,409500,62.26,0.21000000000000085
2014-01-30,64.03,64.26,63.53,64.21,303800,63.1,0.1799999999999926
2014-01-31,63.23,64.23,63.11,63.8,346700,62.69,0.5700000000000003
2014-02-03,63.86,64.0,61.3,61.42,669900,60.35,-2.4399999999999977
2014-02-04,61.9,62.32,61.18,62.13,439700,61.05,0.23000000000000398
2014-02-05,61.98,62.56,61.36,62.3,205200,61.22,0.3200000000000003
2014-02-06,62.39,62.63,62.1,62.5,281200,61.42,0.10999999999999943
2014-02-07,63.8,63.91,62.69,63.49,210700,62.39,-0.30999999999999517
2014-02-10,63.2,63.72,62.87,63.41,237600,62.31,0.20999999999999375
2014-02-11,63.39,63.89,63.14,63.83,265100,62.72,0.4399999999999977
2014-02-12,63.8,64.18,63.7,63.94,151700,62.83,0.14000000000000057
2014-02-13,63.54,64.54,63.54,64.42,139600,63.3,0.8800000000000026
2014-02-14,64.21,64.94,64.21,64.77,104800,63.65,0.5600000000000023
2014-02-18,64.86,65.15,64.31,64.98,214000,63.85,0.12000000000000455
2014-02-19,64.77,65.48,64.46,64.52,216000,63.4,-0.25
2014-02-20,64.46,65.45,64.26,64.85,275900,63.72,0.39000000000000057
2014-02-21,64.93,65.04,64.48,64.64,117200,63.52,-0.29000000000000625
2014-02-24,64.7,65.23,64.34,64.37,181200,63.25,-0.3299999999999983
2014-02-25,64.29,64.97,64.25,64.6,152500,63.48,0.30999999999998806
2014-02-26,64.82,65.64,64.82,64.94,188200,63.81,0.12000000000000455
2014-02-27,64.88,65.72,64.85,65.51,212500,64.37,0.6300000000000097
2014-02-28,65.51,66.74,65.51,66.17,284300,65.02,0.6599999999999966
2014-03-03,65.53,65.81,65.1,65.33,293200,64.2,-0.20000000000000284
2014-03-04,66.25,66.37,65.48,65.75,200400,64.61,-0.5
2014-03-05,65.78,66.04,65.43,65.93,143100,64.79,0.15000000000000568
2014-03-06,66.04,66.14,65.67,65.75,166300,64.61,-0.29000000000000625
2014-03-07,66.0,66.27,65.49,65.73,149900,64.59,-0.269999999999996
2014-03-10,65.71,65.86,65.26,65.56,181300,64.42,-0.14999999999999147
2014-03-11,65.75,65.83,64.9,65.06,132200,63.93,-0.6899999999999977
2014-03-12,64.78,65.14,64.51,65.04,218700,63.91,0.2600000000000051
2014-03-13,65.27,65.42,64.1,64.15,158700,63.04,-1.1199999999999903
2014-03-14,64.15,64.97,63.99,64.51,141500,63.39,0.35999999999999943
2014-03-17,64.72,65.23,64.71,64.96,135600,63.83,0.23999999999999488
2014-03-18,65.01,65.51,64.94,65.47,146100,64.33,0.45999999999999375
2014-03-19,65.27,65.76,64.47,64.86,160400,63.73,-0.4099999999999966
2014-03-20,64.81,64.97,64.52,64.66,134800,63.54,-0.15000000000000568
2014-03-21,64.89,65.52,64.57,64.75,328800,63.63,-0.14000000000000057
2014-03-24,64.54,65.22,63.47,64.19,157200,63.08,-0.3500000000000085
2014-03-25,64.35,64.67,63.88,64.16,160700,63.05,-0.18999999999999773
2014-03-26,64.54,64.54,63.51,63.57,155200,62.47,-0.970000000000006
2014-03-27,63.4,63.73,63.11,63.69,102600,62.58,0.28999999999999915
2014-03-28,63.81,64.61,63.81,64.27,126600,63.15,0.45999999999999375
2014-03-31,64.7,66.25,64.46,66.1,225500,64.95,1.3999999999999915
2014-04-01,66.25,67.12,65.86,67.05,259100,65.89,0.7999999999999972
2014-04-02,66.96,67.41,66.61,67.14,269600,65.97,0.18000000000000682
2014-04-03,67.26,67.51,66.29,66.68,247100,65.52,-0.5799999999999983
2014-04-04,67.1,67.19,65.83,66.04,157900,64.89,-1.059999999999988
2014-04-07,65.87,65.87,65.22,65.42,146800,64.28,-0.45000000000000284
2014-04-08,65.49,65.9,65.03,65.85,169200,64.71,0.35999999999999943
2014-04-09,65.86,66.61,65.83,66.24,204100,65.09,0.37999999999999545
2014-04-10,66.28,66.39,65.46,65.71,200500,64.57,-0.5700000000000074
2014-04-11,67.35,67.35,64.54,64.72,189000,63.6,-2.6299999999999955
2014-04-14,65.13,65.74,64.65,65.19,225900,64.06,0.060000000000002274
2014-04-15,65.51,66.24,64.59,66.03,212700,64.88,0.519999999999996
2014-04-16,66.29,66.7,66.19,66.4,143400,65.25,0.10999999999999943
2014-04-17,66.45,66.89,66.21,66.57,411300,65.41,0.11999999999999034
2014-04-21,66.52,67.11,66.23,67.08,148300,65.92,0.5600000000000023
2014-04-22,67.22,67.74,66.92,67.62,278800,66.45,0.4000000000000057
2014-04-23,67.44,67.78,67.13,67.2,113200,66.03,-0.23999999999999488
2014-04-24,67.31,67.4,66.39,67.36,257100,66.19,0.04999999999999716
2014-04-25,67.2,67.56,66.51,67.14,143500,65.97,-0.060000000000002274
2014-04-28,66.91,67.48,66.32,66.9,347100,66.01,-0.009999999999990905
2014-04-29,66.93,67.35,66.74,67.12,178600,66.23,0.18999999999999773
2014-04-30,66.8,67.47,66.58,67.42,264600,66.53,0.6200000000000045
2014-05-01,67.65,67.72,67.01,67.19,227600,66.3,-0.46000000000000796
2014-05-02,67.34,67.49,66.5,66.68,193500,65.8,-0.6599999999999966
2014-05-05,66.14,66.93,66.05,66.74,238700,65.86,0.5999999999999943
2014-05-06,66.48,66.63,66.14,66.37,136300,65.49,-0.10999999999999943
2014-05-07,66.24,66.49,65.64,66.48,340100,65.6,0.2400000000000091
2014-05-08,66.51,67.26,66.33,66.7,145100,65.82,0.18999999999999773
2014-05-09,66.47,66.88,65.98,66.59,158400,65.71,0.12000000000000455
2014-05-12,66.96,67.59,66.59,67.5,133800,66.61,0.5400000000000063
2014-05-13,67.74,67.84,66.77,66.99,165300,66.1,-0.75
2014-05-14,66.87,67.23,66.52,66.78,293400,65.9,-0.09000000000000341
2014-05-15,66.53,66.54,65.67,65.98,120700,65.11,-0.5499999999999972
2014-05-16,66.01,66.22,65.53,66.14,117800,65.26,0.12999999999999545
2014-05-19,66.15,67.18,65.95,66.63,172300,65.75,0.47999999999998977
2014-05-20,66.34,66.67,65.34,65.81,159400,64.94,-0.5300000000000011
2014-05-21,66.05,66.23,65.66,66.02,129500,65.15,-0.030000000000001137
2014-05-22,66.07,66.29,65.79,65.92,149200,65.05,-0.14999999999999147
2014-05-23,65.94,66.3,65.79,65.99,155000,65.12,0.04999999999999716
2014-05-27,66.14,66.14,65.8,65.95,185800,65.08,-0.18999999999999773
2014-05-28,66.02,66.16,65.44,65.96,213300,65.09,-0.060000000000002274
2014-05-29,66.16,66.39,65.7,66.37,153200,65.49,0.21000000000000796
2014-05-30,66.42,66.66,66.2,66.59,151400,65.71,0.1700000000000017
2014-06-02,66.72,66.78,66.09,66.5,173400,65.62,-0.21999999999999886
2014-06-03,66.3,66.51,66.05,66.22,126000,65.34,-0.0799999999999983
2014-06-04,66.08,66.39,65.97,66.17,112300,65.29,0.09000000000000341
2014-06-05,66.24,66.64,65.8,66.53,174000,65.65,0.29000000000000625
2014-06-06,66.67,67.3,66.49,67.11,128400,66.22,0.4399999999999977
2014-06-09,67.03,67.58,67.03,67.23,101900,66.34,0.20000000000000284
2014-06-10,67.21,67.41,66.68,67.13,116400,66.24,-0.0799999999999983
2014-06-11,66.79,66.94,66.44,66.6,98500,65.72,-0.19000000000001194
2014-06-12,66.43,66.86,65.72,66.1,127700,65.22,-0.3300000000000125
2014-06-13,64.95,66.67,64.95,66.41,245000,65.53,1.4599999999999937
2014-06-16,66.31,66.47,65.56,65.64,172900,64.77,-0.6700000000000017
2014-06-17,65.47,66.9,65.41,66.33,244500,65.45,0.8599999999999994
2014-06-18,66.33,66.4,65.75,66.07,183800,65.2,-0.2600000000000051
2014-06-19,66.06,66.75,66.06,66.68,108200,65.8,0.6200000000000045
2014-06-20,66.75,67.1,66.44,66.63,223800,65.75,-0.12000000000000455
2014-06-23,66.81,66.87,66.33,66.39,122400,65.51,-0.4200000000000017
2014-06-24,66.02,66.74,65.89,66.0,145200,65.13,-0.01999999999999602
2014-06-25,66.05,66.71,66.05,66.39,138700,65.51,0.3400000000000034
2014-06-26,66.36,66.75,65.79,66.31,132000,65.43,-0.04999999999999716
2014-06-27,66.12,67.01,66.12,67.01,513500,66.12,0.8900000000000006
2014-06-30,66.89,67.37,66.55,67.01,206100,66.12,0.12000000000000455
2014-07-01,67.26,68.0,67.14,67.51,277600,66.62,0.25
2014-07-02,67.32,67.56,66.57,66.74,115100,65.86,-0.5799999999999983
2014-07-03,67.04,67.1,66.67,66.97,74500,66.08,-0.07000000000000739
2014-07-07,66.75,66.92,65.97,66.42,136600,65.54,-0.3299999999999983
2014-07-08,66.26,66.41,65.84,66.24,234000,65.36,-0.020000000000010232
2014-07-09,66.29,66.58,65.82,66.32,176600,65.44,0.029999999999986926
2014-07-10,65.46,66.4,65.46,66.26,163900,65.38,0.8000000000000114
2014-07-11,66.16,66.46,65.92,66.35,127000,65.47,0.18999999999999773
2014-07-14,66.75,67.02,66.29,66.54,187100,65.66,-0.20999999999999375
2014-07-15,66.47,67.03,66.2,66.82,186500,65.94,0.3499999999999943
2014-07-16,66.95,67.07,65.92,66.35,347500,65.47,-0.6000000000000085
2014-07-17,65.88,66.11,64.95,65.03,179700,64.17,-0.8499999999999943
2014-07-18,65.3,66.17,64.66,66.05,378100,65.18,0.75
2014-07-21,65.68,65.68,64.99,65.4,176100,64.53,-0.28000000000000114
2014-07-22,64.24,64.65,63.43,63.73,473400,62.89,-0.509999999999998
2014-07-23,63.79,64.05,63.25,63.67,406800,62.83,-0.11999999999999744
2014-07-24,63.55,64.21,63.5,63.79,240000,62.95,0.240000000000002
2014-07-25,63.44,64.03,63.24,63.5,381500,62.66,0.060000000000002274
2014-07-28,63.11,63.19,62.66,62.91,353400,62.35,-0.20000000000000284
2014-07-29,62.87,63.24,62.56,62.63,302400,62.07,-0.23999999999999488
2014-07-30,62.73,63.03,62.02,62.11,308600,61.56,-0.6199999999999974
2014-07-31,61.83,61.83,60.89,61.1,258700,60.56,-0.7299999999999969
2014-08-01,61.07,61.45,60.57,61.13,473500,60.59,0.060000000000002274
2014-08-04,61.3,61.5,60.67,61.38,236100,60.84,0.0800000000000054
2014-08-05,61.0,61.52,60.66,60.97,199100,60.43,-0.030000000000001137
2014-08-06,60.79,62.07,60.52,61.52,363800,60.97,0.730000000000004
2014-08-07,61.87,62.05,61.3,61.58,336800,61.03,-0.28999999999999915
2014-08-08,61.77,62.42,61.24,62.36,188800,61.81,0.5899999999999963
2014-08-11,62.68,63.05,62.1,62.16,143500,61.61,-0.5200000000000031
2014-08-12,62.03,62.48,61.77,62.35,185500,61.8,0.3200000000000003
2014-08-13,62.64,63.15,62.23,63.11,219000,62.55,0.46999999999999886
2014-08-14,63.22,63.7,63.03,63.14,193000,62.58,-0.0799999999999983
2014-08-15,63.31,63.43,62.88,63.3,282800,62.74,-0.010000000000005116
2014-08-18,63.6,63.72,63.34,63.68,154800,63.12,0.0799999999999983
2014-08-19,63.8,64.14,63.66,64.13,158600,63.56,0.3299999999999983
2014-08-20,63.99,64.11,63.65,63.75,220600,63.18,-0.240000000000002
2014-08-21,64.12,64.39,63.77,63.93,240300,63.36,-0.19000000000000483
2014-08-22,64.04,64.23,63.59,63.62,205300,63.06,-0.4200000000000088
2014-08-25,64.01,64.14,63.38,63.72,183600,63.15,-0.29000000000000625
2014-08-26,63.75,64.23,63.67,63.96,135300,63.39,0.21000000000000085
2014-08-27,64.06,64.19,63.66,64.0,88100,63.43,-0.060000000000002274
2014-08-28,63.93,64.22,63.65,64.02,89600,63.45,0.0899999999999963
2014-08-29,64.02,64.21,63.62,64.15,119200,63.58,0.13000000000000966
2014-09-02,64.38,64.88,64.15,64.54,272300,63.97,0.1600000000000108
2014-09-03,64.66,64.69,64.02,64.17,140900,63.6,-0.4899999999999949
2014-09-04,64.5,64.95,63.92,64.74,235600,64.17,0.23999999999999488
2014-09-05,64.86,65.2,64.51,65.2,162500,64.62,0.3400000000000034
2014-09-08,65.01,65.37,64.37,64.71,181800,64.14,-0.30000000000001137
2014-09-09,64.5,64.5,63.52,63.88,260500,63.31,-0.6199999999999974
2014-09-10,63.87,63.87,63.31,63.54,189000,62.98,-0.3299999999999983
2014-09-11,63.44,63.88,63.24,63.79,136600,63.22,0.3500000000000014
2014-09-12,63.54,63.74,62.48,62.7,209900,62.14,-0.8399999999999963
2014-09-15,62.88,62.88,62.28,62.76,184900,62.2,-0.12000000000000455
2014-09-16,62.74,63.04,62.41,62.59,263800,62.03,-0.14999999999999858
2014-09-17,62.53,62.64,61.45,61.49,342800,60.94,-1.0399999999999991
2014-09-18,61.95,62.19,61.54,61.6,306400,61.05,-0.3500000000000014
2014-09-19,61.61,62.0,61.14,61.16,585300,60.62,-0.45000000000000284
2014-09-22,61.1,61.35,60.73,61.2,295300,60.66,0.10000000000000142
2014-09-23,61.11,61.48,60.93,60.94,276900,60.4,-0.1700000000000017
2014-09-24,60.75,61.23,60.6,61.0,234200,60.46,0.25
2014-09-25,60.73,61.01,60.57,60.84,379600,60.3,0.11000000000000654
2014-09-26,60.88,61.5,60.65,61.38,381500,60.84,0.5
2014-09-29,60.86,61.84,60.7,61.75,310700,61.2,0.8900000000000006
2014-09-30,61.58,61.58,60.59,60.7,329300,60.16,-0.8799999999999955
2014-10-01,60.4,60.74,59.11,59.26,523900,58.73,-1.1400000000000006
2014-10-02,59.36,59.67,58.91,59.33,212200,58.8,-0.030000000000001137
2014-10-03,59.6,60.21,59.5,60.11,281400,59.58,0.509999999999998
2014-10-06,60.25,60.65,59.9,60.23,208000,59.7,-0.020000000000003126
2014-10-07,60.08,60.08,58.92,58.95,368300,58.43,-1.1299999999999955
2014-10-08,59.02,60.02,58.33,59.92,265100,59.39,0.8999999999999986
2014-10-09,59.89,60.12,58.22,58.56,364700,58.04,-1.3299999999999983
2014-10-10,58.72,59.14,57.44,57.5,404600,56.99,-1.2199999999999989
2014-10-13,57.41,58.12,56.03,56.18,552600,55.68,-1.2299999999999969
2014-10-14,56.56,56.76,56.01,56.39,631600,55.89,-0.1700000000000017
2014-10-15,55.6,57.09,55.59,56.64,647400,56.14,1.0399999999999991
2014-10-16,55.74,57.78,55.66,57.65,608900,57.14,1.9099999999999966
2014-10-17,58.3,59.07,58.05,58.7,1066900,58.18,0.4000000000000057
2014-10-20,58.71,60.08,58.46,60.04,492600,59.51,1.3299999999999983
2014-10-21,60.28,61.3,60.28,61.25,350400,60.71,0.9699999999999989
2014-10-22,61.42,61.85,60.55,60.59,277000,60.05,-0.8299999999999983
2014-10-23,61.18,62.37,60.79,61.78,440900,61.23,0.6000000000000014
2014-10-24,61.72,62.08,61.48,61.92,156100,61.37,0.20000000000000284
2014-10-27,61.37,61.37,60.01,60.37,397600,59.83,-1.0
2014-10-28,60.79,61.5,60.51,61.25,254300,60.71,0.46000000000000085
2014-10-29,61.34,61.56,60.5,61.03,244100,60.49,-0.3100000000000023
2014-10-30,60.7,61.85,60.38,61.71,335300,61.16,1.009999999999998
2014-10-31,58.36,62.69,58.36,62.24,1044500,61.69,3.8800000000000026
2014-11-03,61.73,62.29,61.42,61.73,536000,61.46,0.0
2014-11-04,61.51,62.36,61.34,62.31,335800,62.04,0.8000000000000043
2014-11-05,62.8,63.69,62.29,63.64,445300,63.36,0.8400000000000034
2014-11-06,63.59,64.03,63.16,63.8,215800,63.52,0.20999999999999375
2014-11-07,63.97,64.85,63.86,64.77,432000,64.49,0.7999999999999972
2014-11-10,64.84,65.57,64.78,65.55,326100,65.26,0.7099999999999937
2014-11-11,65.5,65.87,65.05,65.26,291800,64.97,-0.23999999999999488
2014-11-12,64.95,65.23,64.76,65.17,177900,64.88,0.21999999999999886
2014-11-13,65.4,65.75,64.72,64.95,119100,64.66,-0.45000000000000284
2014-11-14,64.91,65.25,64.6,64.83,294300,64.55,-0.0799999999999983
2014-11-17,64.96,65.61,64.81,65.48,298700,65.19,0.5200000000000102
2014-11-18,65.55,65.81,64.87,64.99,384800,64.7,-0.5600000000000023
2014-11-19,65.0,65.0,64.49,64.83,204600,64.55,-0.1700000000000017
2014-11-20,64.36,65.05,64.36,64.75,161600,64.47,0.39000000000000057
2014-11-21,65.3,65.41,64.71,65.1,216400,64.81,-0.20000000000000284
2014-11-24,65.21,65.38,65.03,65.34,127600,65.05,0.13000000000000966
2014-11-25,65.45,65.45,65.02,65.27,185000,64.98,-0.18000000000000682
2014-11-26,65.31,65.43,64.91,65.29,159300,65.0,-0.01999999999999602
2014-11-28,65.4,65.6,64.92,65.25,105000,64.96,-0.15000000000000568
2014-12-01,64.82,65.4,64.53,65.1,193900,64.81,0.28000000000000114
2014-12-02,65.2,65.89,65.14,65.35,257500,65.06,0.14999999999999147
2014-12-03,65.54,66.49,65.45,66.43,232200,66.14,0.8900000000000006
2014-12-04,66.45,66.9,66.05,66.57,203000,66.28,0.11999999999999034
2014-12-05,66.33,66.71,66.1,66.26,233800,65.97,-0.06999999999999318
2014-12-08,66.19,66.58,65.66,65.88,226400,65.59,-0.3100000000000023
2014-12-09,65.39,66.29,65.2,66.26,192500,65.97,0.8700000000000045
2014-12-10,66.24,66.24,65.22,65.39,174900,65.1,-0.8499999999999943
2014-12-11,65.83,66.2,65.24,65.68,129900,65.39,-0.14999999999999147
2014-12-12,65.3,65.49,64.59,64.64,137400,64.36,-0.6599999999999966
2014-12-15,64.86,65.03,63.82,63.86,163100,63.58,-1.0
2014-12-16,63.76,64.42,63.4,63.82,255600,63.54,0.060000000000002274
2014-12-17,64.28,65.32,63.58,65.26,235400,64.97,0.980000000000004
2014-12-18,66.19,66.78,65.48,66.61,225000,66.32,0.4200000000000017
2014-12-19,66.65,67.27,66.62,67.13,627400,66.84,0.47999999999998977
2014-12-22,67.41,67.5,66.88,67.09,192700,66.8,-0.3199999999999932
2014-12-23,67.17,67.62,66.83,67.44,245200,67.14,0.269999999999996
2014-12-24,67.04,67.84,67.04,67.56,90400,67.26,0.519999999999996
2014-12-26,67.87,68.17,67.3,67.86,96400,67.56,-0.010000000000005116
2014-12-29,67.59,68.62,67.59,68.38,111700,68.08,0.789999999999992
2014-12-30,68.33,68.67,67.91,68.1,98600,67.8,-0.23000000000000398
2014-12-31,68.09,68.37,66.77,66.84,244000,66.55,-1.25
2015-01-02,67.06,67.68,65.91,66.65,224400,66.36,-0.4099999999999966
2015-01-05,66.2,66.63,64.0,64.6,591700,64.32,-1.6000000000000085
2015-01-06,64.85,65.0,63.48,63.91,289200,63.63,-0.9399999999999977
2015-01-07,64.51,64.62,63.87,64.28,261400,64.0,-0.23000000000000398
2015-01-08,64.77,66.14,64.77,66.11,305300,65.82,1.3400000000000034
2015-01-09,66.43,66.7,65.42,65.47,225500,65.18,-0.960000000000008
2015-01-12,65.49,66.14,64.95,65.37,215000,65.08,-0.11999999999999034
2015-01-13,65.79,66.53,64.26,65.17,276200,64.88,-0.6200000000000045
2015-01-14,64.28,64.98,63.9,64.6,222600,64.32,0.3199999999999932
2015-01-15,64.66,65.02,63.45,63.78,302100,63.5,-0.8799999999999955
2015-01-16,63.73,64.68,63.37,64.47,153200,64.19,0.740000000000002
2015-01-20,64.3,64.97,63.67,64.21,198600,63.93,-0.09000000000000341
2015-01-21,63.82,64.71,63.65,64.34,166400,64.06,0.5200000000000031
2015-01-22,64.62,65.07,63.83,64.71,407500,64.43,0.0899999999999892
2015-01-23,64.74,64.91,63.75,63.76,237400,63.48,-0.9799999999999969
2015-01-26,63.58,64.01,63.18,63.77,292000,63.77,0.19000000000000483
2015-01-27,63.06,63.55,62.6,62.89,509500,62.89,-0.1700000000000017
2015-01-28,63.17,63.58,61.89,62.09,365100,62.09,-1.0799999999999983
2015-01-29,62.39,63.23,61.39,63.0,251300,63.0,0.6099999999999994
2015-01-30,62.58,63.35,62.18,63.11,383400,63.11,0.5300000000000011
2015-02-02,63.23,63.85,62.71,63.54,525700,63.54,0.3100000000000023
2015-02-03,63.66,64.42,63.31,63.47,335200,63.47,-0.18999999999999773
2015-02-04,63.26,63.97,62.95,63.22,406900,63.22,-0.03999999999999915
2015-02-05,63.74,64.34,63.4,63.81,389900,63.81,0.07000000000000028
2015-02-06,64.09,66.6,63.76,64.33,928000,64.33,0.23999999999999488
2015-02-09,64.04,64.43,63.18,63.65,622300,63.65,-0.3900000000000077
2015-02-10,64.04,64.31,63.41,63.73,531600,63.73,-0.3100000000000094
2015-02-11,63.5,64.05,63.38,63.68,455300,63.68,0.17999999999999972
2015-02-12,63.95,64.55,63.67,64.07,442700,64.07,0.11999999999999034
2015-02-13,64.11,64.74,63.89,64.56,135600,64.56,0.45000000000000284
2015-02-17,64.13,65.69,64.13,65.25,288300,65.25,1.1200000000000045
2015-02-18,64.99,65.83,64.99,65.83,339500,65.83,0.8400000000000034
2015-02-19,65.41,66.27,65.14,65.84,221900,65.84,0.4300000000000068
2015-02-20,65.94,66.26,65.14,66.17,271400,66.17,0.23000000000000398
2015-02-23,65.92,66.4,65.57,66.27,168000,66.27,0.3499999999999943
2015-02-24,66.14,66.4,65.68,66.3,239000,66.3,0.1599999999999966
2015-02-25,66.18,66.38,65.45,65.85,314400,65.85,-0.3300000000000125
2015-02-26,65.85,66.35,65.74,66.26,169000,66.26,0.4100000000000108
2015-02-27,66.17,66.38,65.56,65.87,264700,65.87,-0.29999999999999716
2015-03-02,65.87,66.56,65.53,66.5,251200,66.5,0.6299999999999955
2015-03-03,66.08,66.45,65.6,65.89,186900,65.89,-0.18999999999999773
2015-03-04,65.92,66.03,64.87,65.62,230200,65.62,-0.29999999999999716
2015-03-05,65.56,65.92,64.63,65.03,254200,65.03,-0.5300000000000011
