Date,open,high,low,close,volume,adj_close,diff
2014-01-02,67.76,68.01,66.97,67.13,257400,65.71,-0.6300000000000097
2014-01-03,66.95,67.3,66.49,66.85,266700,65.44,-0.10000000000000853
2014-01-06,67.13,67.2,66.25,66.5,333500,65.09,-0.6299999999999955
2014-01-07,66.84,66.88,66.27,66.81,384500,65.4,-0.030000000000001137
2014-01-08,67.11,68.29,66.89,68.21,594200,66.77,1.0999999999999943
2014-01-09,68.36,68.68,67.48,67.75,402300,66.32,-0.6099999999999994
2014-01-10,67.74,68.16,67.6,68.05,366800,66.61,0.3100000000000023
2014-01-13,68.19,68.66,67.0,67.13,531900,65.71,-1.0600000000000023
2014-01-14,67.42,68.62,67.3,68.25,459100,66.81,0.8299999999999983
2014-01-15,68.6,68.78,67.63,68.0,488700,66.56,-0.5999999999999943
2014-01-16,67.9,68.27,67.79,68.0,466900,66.56,0.09999999999999432
2014-01-17,68.03,68.19,67.2,67.24,1867400,65.82,-0.7900000000000063
2014-01-21,67.57,67.73,66.85,67.17,395100,65.75,-0.3999999999999915
2014-01-22,67.43,67.43,66.86,66.99,369100,65.57,-0.44000000000001194
2014-01-23,66.93,66.98,65.91,66.3,332800,64.9,-0.6300000000000097
2014-01-24,66.05,66.05,64.44,64.48,312400,63.12,-1.5699999999999932
2014-01-27,64.16,64.62,63.4,63.4,351700,62.3,-0.759999999999998
2014-01-28,63.64,63.78,63.3,63.67,269700,62.56,0.030000000000001137
2014-01-29,63.15,63.96,62.84,63.36,409500,62.26,0.21000000000000085
2014-01-30,64.03,64.26,63.53,64.21,303800,63.1,0.1799999999999926
2014-01-31,63.23,64.23,63.11,63.8,346700,62.69,0.5700000000000003
2014-02-03,63.86,64.0,61.3,61.42,669900,60.35,-2.4399999999999977
2014-02-04,61.9,62.32,61.18,62.13,439700,61.05,0.23000000000000398
2014-02-05,61.98,62.56,61.36,62.3,205200,61.22,0.3200000000000003
2014-02-06,62.39,62.63,62.1,62.5,281200,61.42,0.10999999999999943
2014-02-07,63.8,63.91,62.69,63.49,210700,62.39,-0.30999999999999517
2014-02-10,63.2,63.72,62.87,63.41,237600,62.31,0.20999999999999375
2014-02-11,63.39,63.89,63.14,63.83,265100,62.72,0.4399999999999977
2014-02-12,63.8,64.18,63.7,63.94,151700,62.83,0.14000000000000057
2014-02-13,63.54,64.54,63.54,64.42,139600,63.3,0.8800000000000026
2014-02-14,64.21,64.94,64.21,64.77,104800,63.65,0.5600000000000023
2014-02-18,64.86,65.15,64.31,64.98,214000,63.85,0.12000000000000455
2014-02-19,64.77,65.48,64.46,64.52,216000,63.4,-0.25
2014-02-20,64.46,65.45,64.26,64.85,275900,63.72,0.39000000000000057
2014-02-21,64.93,65.04,64.48,64.64,117200,63.52,-0.29000000000000625
2014-02-24,64.7,65.23,64.34,64.37,181200,63.25,-0.3299999999999983
2014-02-25,64.29,64.97,64.25,64.6,152500,63.48,0.30999999999998806
2014-02-26,64.82,65.64,64.82,64.94,188200,63.81,0.12000000000000455
2014-02-27,64.88,65.72,64.85,65.51,212500,64.37,0.6300000000000097
2014-02-28,65.51,66.74,65.51,66.17,284300,65.02,0.6599999999999966
2014-03-03,65.53,65.81,65.1,65.33,293200,64.2,-0.20000000000000284
2014-03-04,66.25,66.37,65.48,65.75,200400,64.61,-0.5
2014-03-05,65.78,66.04,65.43,65.93,143100,64.79,0.15000000000000568
2014-03-06,66.04,66.14,65.67,65.75,166300,64.61,-0.29000000000000625
2014-03-07,66.0,66.27,65.49,65.73,149900,64.59,-0.269999999999996
2014-03-10,65.71,65.86,65.26,65.56,181300,64.42,-0.14999999999999147
2014-03-11,65.75,65.83,64.9,65.06,132200,63.93,-0.6899999999999977
2014-03-12,64.78,65.14,64.51,65.04,218700,63.91,0.2600000000000051
2014-03-13,65.27,65.42,64.1,64.15,158700,63.04,-1.1199999999999903
2014-03-14,64.15,64.97,63.99,64.51,141500,63.39,0.35999999999999943
2014-03-17,64.72,65.23,64.71,64.96,135600,63.83,0.23999999999999488
2014-03-18,65.01,65.51,64.94,65.47,146100,64.33,0.45999999999999375
2014-03-19,65.27,65.76,64.47,64.86,160400,63.73,-0.4099999999999966
2014-03-20,64.81,64.97,64.52,64.66,134800,63.54,-0.15000000000000568
2014-03-21,64.89,65.52,64.57,64.75,328800,63.63,-0.14000000000000057
2014-03-24,64.54,65.22,63.47,64.19,157200,63.08,-0.3500000000000085
2014-03-25,64.35,64.67,63.88,64.16,160700,63.05,-0.18999999999999773
2014-03-26,64.54,64.54,63.51,63.57,155200,62.47,-0.970000000000006
2014-03-27,63.4,63.73,63.11,63.69,102600,62.58,0.28999999999999915
2014-03-28,63.81,64.61,63.81,64.27,126600,63.15,0.45999999999999375
2014-03-31,64.7,66.25,64.46,66.1,225500,64.95,1.3999999999999915
2014-04-01,66.25,67.12,65.86,67.05,259100,65.89,0.7999999999999972
2014-04-02,66.96,67.41,66.61,67.14,269600,65.97,0.18000000000000682
2014-04-03,67.26,67.51,66.29,66.68,247100,65.52,-0.5799999999999983
2014-04-04,67.1,67.19,65.83,66.04,157900,64.89,-1.059999999999988
2014-04-07,65.87,65.87,65.22,65.42,146800,64.28,-0.45000000000000284
2014-04-08,65.49,65.9,65.03,65.85,169200,64.71,0.35999999999999943
2014-04-09,65.86,66.61,65.83,66.24,204100,65.09,0.37999999999999545
2014-04-10,66.28,66.39,65.46,65.71,200500,64.57,-0.5700000000000074
2014-04-11,67.35,67.35,64.54,64.72,189000,63.6,-2.6299999999999955
2014-04-14,65.13,65.74,64.65,65.19,225900,64.06,0.060000000000002274
2014-04-15,65.51,66.24,64.59,66.03,212700,64.88,0.519999999999996
2014-04-16,66.29,66.7,66.19,66.4,143400,65.25,0.10999999999999943
2014-04-17,66.45,66.89,66.21,66.57,411300,65.41,0.11999999999999034
2014-04-21,66.52,67.11,66.23,67.08,148300,65.92,0.5600000000000023
2014-04-22,67.22,67.74,66.92,67.62,278800,66.45,0.4000000000000057
2014-04-23,67.44,67.78,67.13,67.2,113200,66.03,-0.23999999999999488
2014-04-24,67.31,67.4,66.39,67.36,257100,66.19,0.04999999999999716
2014-04-25,67.2,67.56,66.51,67.14,143500,65.97,-0.060000000000002274
2014-04-28,66.91,67.48,66.32,66.9,347100,66.01,-0.009999999999990905
2014-04-29,66.93,67.35,66.74,67.12,178600,66.23,0.18999999999999773
2014-04-30,66.8,67.47,66.58,67.42,264600,66.53,0.6200000000000045
2014-05-01,67.65,67.72,67.01,67.19,227600,66.3,-0.46000000000000796
2014-05-02,67.34,67.49,66.5,66.68,193500,65.8,-0.6599999999999966
2014-05-05,66.14,66.93,66.05,66.74,238700,65.86,0.5999999999999943
2014-05-06,66.48,66.63,66.14,66.37,136300,65.49,-0.10999999999999943
2014-05-07,66.24,66.49,65.64,66.48,340100,65.6,0.2400000000000091
2014-05-08,66.51,67.26,66.33,66.7,145100,65.82,0.18999999999999773
2014-05-09,66.47,66.88,65.98,66.59,158400,65.71,0.12000000000000455
2014-05-12,66.96,67.59,66.59,67.5,133800,66.61,0.5400000000000063
2014-05-13,67.74,67.84,66.77,66.99,165300,66.1,-0.75
2014-05-14,66.87,67.23,66.52,66.78,293400,65.9,-0.09000000000000341
2014-05-15,66.53,66.54,65.67,65.98,120700,65.11,-0.5499999999999972
2014-05-16,66.01,66.22,65.53,66.14,117800,65.26,0.12999999999999545
2014-05-19,66.15,67.18,65.95,66.63,172300,65.75,0.47999999999998977
2014-05-20,66.34,66.67,65.34,65.81,159400,64.94,-0.5300000000000011
2014-05-21,66.05,66.23,65.66,66.02,129500,65.15,-0.030000000000001137
2014-05-22,66.07,66.29,65.79,65.92,149200,65.05,-0.14999999999999147
2014-05-23,65.94,66.3,65.79,65.99,155000,65.12,0.04999999999999716
2014-05-27,66.14,66.14,65.8,65.95,185800,65.08,-0.18999999999999773
2014-05-28,66.02,66.16,65.44,65.96,213300,65.09,-0.060000000000002274
2014-05-29,66.16,66.39,65.7,66.37,153200,65.49,0.21000000000000796
2014-05-30,66.42,66.66,66.2,66.59,151400,65.71,0.1700000000000017
2014-06-02,66.72,66.78,66.09,66.5,173400,65.62,-0.21999999999999886
2014-06-03,66.3,66.51,66.05,66.22,126000,65.34,-0.0799999999999983
2014-06-04,66.08,66.39,65.97,66.17,112300,65.29,0.09000000000000341
2014-06-05,66.24,66.64,65.8,66.53,174000,65.65,0.29000000000000625
2014-06-06,66.67,67.3,66.49,67.11,128400,66.22,0.4399999999999977
2014-06-09,67.03,67.58,67.03,67.23,101900,66.34,0.20000000000000284
2014-06-10,67.21,67.41,66.68,67.13,116400,66.24,-0.0799999999999983
2014-06-11,66.79,66.94,66.44,66.6,98500,65.72,-0.19000000000001194
2014-06-12,66.43,66.86,65.72,66.1,127700,65.22,-0.3300000000000125
2014-06-13,64.95,66.67,64.95,66.41,245000,65.53,1.4599999999999937
2014-06-16,66.31,66.47,65.56,65.64,172900,64.77,-0.6700000000000017
2014-06-17,65.47,66.9,65.41,66.33,244500,65.45,0.8599999999999994
2014-06-18,66.33,66.4,65.75,66.07,183800,65.2,-0.2600000000000051
2014-06-19,66.06,66.75,66.06,66.68,108200,65.8,0.6200000000000045
2014-06-20,66.75,67.1,66.44,66.63,223800,65.75,-0.12000000000000455
2014-06-23,66.81,66.87,66.33,66.39,122400,65.51,-0.4200000000000017
2014-06-24,66.02,66.74,65.89,66.0,145200,65.13,-0.01999999999999602
2014-06-25,66.05,66.71,66.05,66.39,138700,65.51,0.3400000000000034
2014-06-26,66.36,66.75,65.79,66.31,132000,65.43,-0.04999999999999716
2014-06-27,66.12,67.01,66.12,67.01,513500,66.12,0.8900000000000006
2014-06-30,66.89,67.37,66.55,67.01,206100,66.12,0.12000000000000455
2014-07-01,67.26,68.0,67.14,67.51,277600,66.62,0.25
2014-07-02,67.32,67.56,66.57,66.74,115100,65.86,-0.5799999999999983
2014-07-03,67.04,67.1,66.67,66.97,74500,66.08,-0.07000000000000739
2014-07-07,66.75,66.92,65.97,66.42,136600,65.54,-0.3299999999999983
2014-07-08,66.26,66.41,65.84,66.24,234000,65.36,-0.020000000000010232
2014-07-09,66.29,66.58,65.82,66.32,176600,65.44,0.029999999999986926
2014-07-10,65.46,66.4,65.46,66.26,163900,65.38,0.8000000000000114
2014-07-11,66.16,66.46,65.92,66.35,127000,65.47,0.18999999999999773
2014-07-14,66.75,67.02,66.29,66.54,187100,65.66,-0.20999999999999375
2014-07-15,66.47,67.03,66.2,66.82,186500,65.94,0.3499999999999943
2014-07-16,66.95,67.07,65.92,66.35,347500,65.47,-0.6000000000000085
2014-07-17,65.88,66.11,64.95,65.03,179700,64.17,-0.8499999999999943
2014-07-18,65.3,66.17,64.66,66.05,378100,65.18,0.75
2014-07-21,65.68,65.68,64.99,65.4,176100,64.53,-0.28000000000000114
2014-07-22,64.24,64.65,63.43,63.73,473400,62.89,-0.509999999999998
2014-07-23,63.79,64.05,63.25,63.67,406800,62.83,-0.11999999999999744
2014-07-24,63.55,64.21,63.5,63.79,240000,62.95,0.240000000000002
2014-07-25,63.44,64.03,63.24,63.5,381500,62.66,0.060000000000002274
2014-07-28,63.11,63.19,62.66,62.91,353400,62.35,-0.20000000000000284
2014-07-29,62.87,63.24,62.56,62.63,302400,62.07,-0.23999999999999488
2014-07-30,62.73,63.03,62.02,62.11,308600,61.56,-0.6199999999999974
2014-07-31,61.83,61.83,60.89,61.1,258700,60.56,-0.7299999999999969
2014-08-01,61.07,61.45,60.57,61.13,473500,60.59,0.060000000000002274
2014-08-04,61.3,61.5,60.67,61.38,236100,60.84,0.0800000000000054
2014-08-05,61.0,61.52,60.66,60.97,199100,60.43,-0.030000000000001137
2014-08-06,60.79,62.07,60.52,61.52,363800,60.97,0.730000000000004
2014-08-07,61.87,62.05,61.3,61.58,336800,61.03,-0.28999999999999915
2014-08-08,61.77,62.42,61.24,62.36,188800,61.81,0.5899999999999963
2014-08-11,62.68,63.05,62.1,62.16,143500,61.61,-0.5200000000000031
2014-08-12,62.03,62.48,61.77,62.35,185500,61.8,0.3200000000000003
2014-08-13,62.64,63.15,62.23,63.11,219000,62.55,0.46999999999999886
2014-08-14,63.22,63.7,63.03,63.14,193000,62.58,-0.0799999999999983
2014-08-15,63.31,63.43,62.88,63.3,282800,62.74,-0.010000000000005116
2014-08-18,63.6,63.72,63.34,63.68,154800,63.12,0.0799999999999983
2014-08-19,63.8,64.14,63.66,64.13,158600,63.56,0.3299999999999983
2014-08-20,63.99,64.11,63.65,63.75,220600,63.18,-0.240000000000002
2014-08-21,64.12,64.39,63.77,63.93,240300,63.36,-0.19000000000000483
2014-08-22,64.04,64.23,63.59,63.62,205300,63.06,-0.4200000000000088
2014-08-25,64.01,64.14,63.38,63.72,183600,63.15,-0.29000000000000625
2014-08-26,63.75,64.23,63.67,63.96,135300,63.39,0.21000000000000085
2014-08-27,64.06,64.19,63.66,64.0,88100,63.43,-0.060000000000002274
2014-08-28,63.93,64.22,63.65,64.02,89600,63.45,0.0899999999999963
2014-08-29,64.02,64.21,63.62,64.15,119200,63.58,0.13000000000000966
2014-09-02,64.38,64.88,64.15,64.54,272300,63.97,0.1600000000000108
2014-09-03,64.66,64.69,64.02,64.17,140900,63.6,-0.4899999999999949
2014-09-04,64.5,64.95,63.92,64.74,235600,64.17,0.23999999999999488
2014-09-05,64.86,65.2,64.51,65.2,162500,64.62,0.3400000000000034
2014-09-08,65.01,65.37,64.37,64.71,181800,64.14,-0.30000000000001137
2014-09-09,64.5,64.5,63.52,63.88,260500,63.31,-0.6199999999999974
2014-09-10,63.87,63.87,63.31,63.54,189000,62.98,-0.3299999999999983
2014-09-11,63.44,63.88,63.24,63.79,136600,63.22,0.3500000000000014
2014-09-12,63.54,63.74,62.48,62.7,209900,62.14,-0.8399999999999963
2014-09-15,62.88,62.88,62.28,62.76,184900,62.2,-0.12000000000000455
2014-09-16,62.74,63.04,62.41,62.59,263800,62.03,-0.14999999999999858
2014-09-17,62.53,62.64,61.45,61.49,342800,60.94,-1.0399999999999991
2014-09-18,61.95,62.19,61.54,61.6,306400,61.05,-0.3500000000000014
2014-09-19,61.61,62.0,61.14,61.16,585300,60.62,-0.45000000000000284
2014-09-22,61.1,61.35,60.73,61.2,295300,60.66,0.10000000000000142
2014-09-23,61.11,61.48,60.93,60.94,276900,60.4,-0.1700000000000017
2014-09-24,60.75,61.23,60.6,61.0,234200,60.46,0.25
2014-09-25,60.73,61.01,60.57,60.84,379600,60.3,0.11000000000000654
2014-09-26,60.88,61.5,60.65,61.38,381500,60.84,0.5
2014-09-29,60.86,61.84,60.7,61.75,310700,61.2,0.8900000000000006
2014-09-30,61.58,61.58,60.59,60.7,329300,60.16,-0.8799999999999955
2014-10-01,60.4,60.74,59.11,59.26,523900,58.73,-1.1400000000000006
2014-10-02,59.36,59.67,58.91,59.33,212200,58.8,-0.030000000000001137
2014-10-03,59.6,60.21,59.5,60.11,281400,59.58,0.509999999999998
2014-10-06,60.25,60.65,59.9,60.23,208000,59.7,-0.020000000000003126
2014-10-07,60.08,60.08,58.92,58.95,368300,58.43,-1.1299999999999955
2014-10-08,59.02,60.02,58.33,59.92,265100,59.39,0.8999999999999986
2014-10-09,59.89,60.12,58.22,58.56,364700,58.04,-1.3299999999999983
2014-10-10,58.72,59.14,57.44,57.5,404600,56.99,-1.2199999999999989
2014-10-13,57.41,58.12,56.03,56.18,552600,55.68,-1.2299999999999969
2014-10-14,56.56,56.76,56.01,56.39,631600,55.89,-0.1700000000000017
2014-10-15,55.6,57.09,55.59,56.64,647400,56.14,1.0399999999999991
2014-10-16,55.74,57.78,55.66,57.65,608900,57.14,1.9099999999999966
2014-10-17,58.3,59.07,58.05,58.7,1066900,58.18,0.4000000000000057
2014-10-20,58.71,60.08,58.46,60.04,492600,59.51,1.3299999999999983
2014-10-21,60.28,61.3,60.28,61.25,350400,60.71,0.9699999999999989
2014-10-22,61.42,61.85,60.55,60.59,277000,60.05,-0.8299999999999983
2014-10-23,61.18,62.37,60.79,61.78,440900,61.23,0.6000000000000014
2014-10-24,61.72,62.08,61.48,61.92,156100,61.37,0.20000000000000284
2014-10-27,61.37,61.37,60.01,60.37,397600,59.83,-1.0
2014-10-28,60.79,61.5,60.51,61.25,254300,60.71,0.46000000000000085
2014-10-29,61.34,61.56,60.5,61.03,244100,60.49,-0.3100000000000023
2014-10-30,60.7,61.85,60.38,61.71,335300,61.16,1.009999999999998
2014-10-31,58.36,62.69,58.36,62.24,1044500,61.69,3.8800000000000026
2014-11-03,61.73,62.29,61.42,61.73,536000,61.46,0.0
2014-11-04,61.51,62.36,61.34,62.31,335800,62.04,0.8000000000000043
2014-11-05,62.8,63.69,62.29,63.64,445300,63.36,0.8400000000000034
2014-11-06,63.59,64.03,63.16,63.8,215800,63.52,0.20999999999999375
2014-11-07,63.97,64.85,63.86,64.77,432000,64.49,0.7999999999999972
2014-11-10,64.84,65.57,64.78,65.55,326100,65.26,0.7099999999999937
2014-11-11,65.5,65.87,65.05,65.26,291800,64.97,-0.23999999999999488
2014-11-12,64.95,65.23,64.76,65.17,177900,64.88,0.21999999999999886
2014-11-13,65.4,65.75,64.72,64.95,119100,64.66,-0.45000000000000284
2014-11-14,64.91,65.25,64.6,64.83,294300,64.55,-0.0799999999999983
2014-11-17,64.96,65.61,64.81,65.48,298700,65.19,0.5200000000000102
2014-11-18,65.55,65.81,64.87,64.99,384800,64.7,-0.5600000000000023
2014-11-19,65.0,65.0,64.49,64.83,204600,64.55,-0.1700000000000017
2014-11-20,64.36,65.05,64.36,64.75,161600,64.47,0.39000000000000057
2014-11-21,65.3,65.41,64.71,65.1,216400,64.81,-0.20000000000000284
2014-11-24,65.21,65.38,65.03,65.34,127600,65.05,0.13000000000000966
2014-11-25,65.45,65.45,65.02,65.27,185000,64.98,-0.18000000000000682
2014-11-26,65.31,65.43,64.91,65.29,159300,65.0,-0.01999999999999602
2014-11-28,65.4,65.6,64.92,65.25,105000,64.96,-0.15000000000000568
2014-12-01,64.82,65.4,64.53,65.1,193900,64.81,0.28000000000000114
2014-12-02,65.2,65.89,65.14,65.35,257500,65.06,0.14999999999999147
2014-12-03,65.54,66.49,65.45,66.43,232200,66.14,0.8900000000000006
2014-12-04,66.45,66.9,66.05,66.57,203000,66.28,0.11999999999999034
2014-12-05,66.33,66.71,66.1,66.26,233800,65.97,-0.06999999999999318
2014-12-08,66.19,66.58,65.66,65.88,226400,65.59,-0.3100000000000023
2014-12-09,65.39,66.29,65.2,66.26,192500,65.97,0.8700000000000045
2014-12-10,66.24,66.24,65.22,65.39,174900,65.1,-0.8499999999999943
2014-12-11,65.83,66.2,65.24,65.68,129900,65.39,-0.14999999999999147
2014-12-12,65.3,65.49,64.59,64.64,137400,64.36,-0.6599999999999966
2014-12-15,64.86,65.03,63.82,63.86,163100,63.58,-1.0
2014-12-16,63.76,64.42,63.4,63.82,255600,63.54,0.060000000000002274
2014-12-17,64.28,65.32,63.58,65.26,235400,64.97,0.980000000000004
2014-12-18,66.19,66.78,65.48,66.61,225000,66.32,0.4200000000000017
2014-12-19,66.65,67.27,66.62,67.13,627400,66.84,0.47999999999998977
2014-12-22,67.41,67.5,66.88,67.09,192700,66.8,-0.3199999999999932
2014-12-23,67.17,67.62,66.83,67.44,245200,67.14,0.269999999999996
2014-12-24,67.04,67.84,67.04,67.56,90400,67.26,0.519999999999996
2014-12-26,67.87,68.17,67.3,67.86,96400,67.56,-0.010000000000005116
2014-12-29,67.59,68.62,67.59,68.38,111700,68.08,0.789999999999992
2014-12-30,68.33,68.67,67.91,68.1,98600,67.8,-0.23000000000000398
2014-12-31,68.09,68.37,66.77,66.84,244000,66.55,-1.25
